-0.006847189058197657,-0.006974577874991086,-0.005828925623810802,-0.003468171562835377,-0.00021551009626766759,0.00240223138009731,0.0036563529779295974,0.004501001470560797,0.005090140604583246,0.005440483006008726,0.005555738073411871,0.005498706759997767,0.005368035946134662,0.0051393127523402474,0.004809136465450747,0.004418774938707319,0.004110243673776364,0.003876995408120983,0.0035525185717694974,0.00313543775017842,0.002745474906466966,0.0022534775564377165,0.0017104011410859726,0.0012722205087001151,0.0009196759982516836,0.0005667406396058793,0.000285587010498952,0.00021655517883865233,0.00027175676813310346,0.00028174096744967684,0.0003030545299821041,0.0003736110905433118,0.00034102667222193987,0.00023783508944299168,0.000128741575376402,2.4721133894243853e-05,-0.0002714381874305369,-0.0007650269958496373,-0.001260559565035826,-0.0016682206789550157,-0.0021226095996840907,-0.0026386916072615955,-0.0030649616380025438,-0.003604554444147285,-0.004404628336895175,-0.004933024468437283,-0.005272924469210236,-0.005715230647717996,-0.006169866162055634,-0.006605624848062212
-0.006275629182991292,-0.005685081912760905,-0.003930631892607341,-0.0014236352367571472,0.0009389529515109649,0.0023815616538182486,0.0031945971642838526,0.0037059534116894773,0.004078226278887617,0.00416551637000423,0.003988085636514703,0.003945074139711619,0.003799647884088748,0.003564077199566816,0.003413644309545432,0.0032139900826856404,0.0030331829168333616,0.002937971981797403,0.0027985835667637877,0.002469288419173205,0.0021647771292164766,0.001920776647778971,0.0016217028596135737,0.0014750440475135222,0.0014489114858166397,0.0013409038841244573,0.0012713910840027047,0.0012465726599302446,0.0012600780263433893,0.001223920669150046,0.00115945371318197,0.0010537407872809443,0.0007376154392580962,0.0003864900892458824,8.983312682334586e-05,-0.0003685872051563066,-0.0010089375170406274,-0.0015118303244517572,-0.0019239238548552147,-0.0023799357063736745,-0.002690458938512677,-0.0030696469086687554,-0.0034920412671080618,-0.003688991741674662,-0.003953638515624488,-0.004312817722978636,-0.004720069598759034,-0.005035341293405813,-0.005309175754868366,-0.005591179644259044
-0.005323520548812039,-0.004628200416153975,-0.0028700986576002266,-0.0006511442370614974,0.001122679420361369,0.0022221099161971024,0.0029789018968044566,0.0035058871703180943,0.003757993917458477,0.003840666111407191,0.003828866945705854,0.003751020760812992,0.0035169546548194175,0.003281364763804147,0.0031914985019511157,0.003201287643869378,0.0030210502182969985,0.0028737796478516793,0.0027498221348459025,0.0024581724297511294,0.002150225258237051,0.0018772774214467448,0.0015437127511890413,0.0013100456741840288,0.0012219631600017572,0.001241329437748709,0.0013121891045759192,0.0013177360428659535,0.0012061299961428403,0.001049659798959856,0.0008238286633404604,0.00062171561714,0.00046864678099590133,0.00015194587046396784,-0.00030646647572493875,-0.0008256233494853549,-0.0012691151866322586,-0.0016103319624692243,-0.0018855775557709766,-0.002162893383128354,-0.00259244652995088,-0.0030372921135225156,-0.0033372926096727415,-0.0036222730525892494,-0.003971696733625662,-0.004392115563996846,-0.004867556930584891,-0.005346888771278703,-0.005782088901933434,-0.00615105737740365
-0.007224953488035687,-0.006854816165590798,-0.005299538465280586,-0.002838903857228782,1.620807556997704e-05,0.002596042287252136,0.00456150447336217,0.005752309749955411,0.006278617721592222,0.006442680466001407,0.006472473424143857,0.006312861173725256,0.006092659485750475,0.005811505959483669,0.005498162809392155,0.005273013802905067,0.0048688871594178805,0.004325958698442538,0.003740476567763872,0.003200949037367216,0.0027616126938554827,0.0024485417370103393,0.002176114071800552,0.0019057841151723484,0.0019066736029620676,0.0019963948453542773,0.0018720213636896858,0.0017007863644385814,0.0015832308353587207,0.0014414988363248599,0.0010942683120639762,0.0006353523399911022,9.803944240316026e-05,-0.0005690944076078072,-0.0011646828744779165,-0.0018602057451446194,-0.0026718943806969754,-0.0033635630703825995,-0.003894801928207489,-0.004385663404240817,-0.004763780340221892,-0.005072145774259275,-0.005466430000635951,-0.0056932811564606115,-0.005966474485992922,-0.006284643314321808,-0.00649547499028855,-0.006824748551671086,-0.007155922143607902,-0.007368783639453293
-0.005250473484122529,-0.005229496724904496,-0.004559334030735815,-0.003094977756616054,-0.0008272210441218008,0.0009520317815408705,0.0021508355099215306,0.0029811510203891283,0.003437945854497539,0.003771712041964962,0.004002098737536959,0.0038196238648013307,0.0035956496054891105,0.0033726690883329647,0.003056561187552323,0.0028438710170779107,0.002732122716381879,0.0026396026089194223,0.002455642864099817,0.00220933428661965,0.0019326611568683122,0.001705807881256038,0.0015197723156574942,0.001363230127446137,0.0012073199215553057,0.0011677456046590218,0.0012216616805814534,0.0012559981939289492,0.0012770580348653161,0.0011657040076602822,0.0010433766046159124,0.0008928406928596837,0.0006579158996293224,0.0004761472826642639,0.00018867569012153914,-0.00021990919529665093,-0.0007183341603453548,-0.001139020410250233,-0.0014472493911846544,-0.0018333877568219217,-0.0022528850497586022,-0.002576101554571179,-0.0028559390418629238,-0.00305288466438805,-0.003284352677298899,-0.0035519995842433895,-0.003835002087193811,-0.00423876923432955,-0.00460288684434676,-0.0048260454390903545
-0.0050493281427521535,-0.0050306777448344536,-0.004030294267146245,-0.0021904692001011162,9.047278671981238e-05,0.0016669680964398162,0.002632134143615287,0.0032525019430686194,0.0037246312942636364,0.003894774271688083,0.0038020021122769747,0.0036094849875061407,0.003451388672050134,0.0032073529345382325,0.0028723339359082015,0.002710822684726848,0.002664003721802615,0.0026001124736523664,0.00238178198590864,0.002106925088025515,0.0018600162697453204,0.0016736700656487544,0.001506647085342336,0.0013498052481472071,0.0012329843910124044,0.0011932110549249624,0.0011728143743435285,0.0012052183811547372,0.001239907043959862,0.0010627959818032642,0.0009458769868031518,0.0008278636425669589,0.0005117263121900032,0.0002132139740894842,-9.702561436150016e-05,-0.00048172623022306243,-0.0009807538043986016,-0.001421058159694807,-0.001794211346569491,-0.0021740280832660305,-0.002545334626738795,-0.0028265831738912683,-0.002992483544860841,-0.0031366017885653343,-0.003416638460403757,-0.003801565409513033,-0.004160662609629492,-0.004439746144964456,-0.004670955523944281,-0.00488247333136314
-0.006506112463906993,-0.0064579692895869924,-0.005725923822608791,-0.004168945564136443,-0.0017115444792267427,0.0009190621114701436,0.0033009005292134047,0.005159634417442665,0.006218765131225623,0.006553589753076412,0.0065303729865398685,0.006468098950258178,0.006275259337502918,0.005963651236962267,0.005608160692386444,0.005220879609185867,0.004658274309478019,0.004074165625554414,0.003524941632717826,0.0029983415474273555,0.002451725578298651,0.002067500486847869,0.0017802134356079656,0.0014776322837935871,0.0013779753445579911,0.0013032274234708915,0.001169093526667653,0.0010226676328029486,0.0009536557348445463,0.0008361042183735092,0.0005826825207672991,0.00019454681120012932,-0.00026285986520066664,-0.0007519845762743228,-0.0014380828851396094,-0.0020556497975147718,-0.0026507736939319964,-0.003163649121297218,-0.0035990289170719195,-0.003985512342990504,-0.00430726458967703,-0.004624886713078474,-0.004930847157534719,-0.005280608524553532,-0.005599446467890607,-0.005840610949397805,-0.006001378781145664,-0.006116515260892084,-0.006267968675977388,-0.006505723656716179
-0.006450028255883533,-0.006456850518807349,-0.00540760593321799,-0.00315539317384331,-2.768626111299919e-05,0.0019247365572333658,0.0031098718004519427,0.0038362738066130887,0.004212791424761538,0.004528326907034953,0.004597852391666185,0.004431223875213709,0.004303936738524195,0.004025259734920697,0.0037126338936630055,0.0035201109637911735,0.0035115025230348183,0.0034282977578982206,0.003206032568265265,0.0028841148467894312,0.0025615288492192526,0.002284153335635047,0.0020462384513569533,0.0018314480059618303,0.001704537359487914,0.001714083997625581,0.001803905956680714,0.001825196921627789,0.0017680468455676787,0.0015579489422706718,0.0012412863316609542,0.0010354464884700656,0.0006199311990366748,8.563022169317317e-05,-0.00041603755694072657,-0.0009480155101672686,-0.0015163613504982874,-0.002023523981279217,-0.002381449729535582,-0.0027712130399843793,-0.003210736551299321,-0.0035993706184172278,-0.003794326214966806,-0.003982543638484237,-0.004248207408377804,-0.0046041057553308975,-0.005009808633190841,-0.005501502484280933,-0.005944955436622784,-0.00621817262741095
-0.008383160393388246,-0.007802727801089418,-0.005226395437209786,-0.0012263061284345646,0.002748088059139497,0.005913923887212529,0.007972212464143466,0.009011166055831686,0.009361966436158421,0.009319328682027832,0.00913464731534841,0.008756094101359278,0.008239560156706877,0.007628825779951415,0.007007433473403487,0.006391403288914736,0.0057915183169546195,0.005080606964984562,0.0041914410373626795,0.0032351813293021317,0.0022888345916424425,0.0014804254236518767,0.0008482339704236644,0.0004330908429848379,0.0003297071199665484,0.0002621283864170407,0.00021588046844387776,0.00030133344458386726,0.0002660815585309559,0.0001065280610058753,-2.0908180808938036e-05,-0.00022585371315529733,-0.0005534844812029963,-0.0009131216049795753,-0.0013679349332326623,-0.002014747379570343,-0.0026050923725978105,-0.0030745703751498296,-0.003612540858467593,-0.004350795772805505,-0.005073036002940765,-0.005416127725975474,-0.00586983571934082,-0.006418839196440557,-0.006648339107542313,-0.006997770140529815,-0.007500824351941847,-0.007796586382380708,-0.008029477251543717,-0.008269854213041425
-0.008947229567041777,-0.008466537701729601,-0.0061943339837058665,-0.0025667268518563937,0.001540496133797765,0.004679179907392576,0.006613994265184259,0.007519938942721026,0.007905950259534585,0.007993123153636842,0.007899219618217273,0.007704292202772262,0.007431612222581778,0.007057938521620433,0.006618035489247885,0.006253864706587134,0.005776507256021201,0.005193567689222823,0.004590695042745532,0.0038183032598257793,0.0030170178158964523,0.002303250907993989,0.0016938602191548533,0.0013410186328773415,0.001233316980126034,0.0012732878746434153,0.0014312956522326802,0.0015418324416275574,0.001482353675669297,0.0012266862272875656,0.000911889475665352,0.000537412757851665,2.4935121420425466e-05,-0.0006698324780566154,-0.001396492354447794,-0.002089837711500224,-0.0028664663155194034,-0.003599460086506025,-0.004246963296911664,-0.004814334584879322,-0.00529293439449012,-0.005684944604725279,-0.006015321502680023,-0.006349388963802809,-0.006694991255883305,-0.007085563609525531,-0.0075475723160421775,-0.007959414459983256,-0.00832833651468412,-0.008673297142265605
-0.006124806474198896,-0.006116513143276072,-0.00497059685028306,-0.0023606050359984824,0.0020297998743700986,0.005781162678906465,0.00835838756521488,0.009796395805363092,0.010394929648495931,0.010381234744737611,0.009976324634965943,0.009455791368838316,0.008787266615957886,0.007987158187799603,0.007109251145732069,0.0061992578581529945,0.005336192700250375,0.004539191539766795,0.0037486604476114566,0.00303263178072654,0.0022833099357834185,0.0014977423608337514,0.0009394324771753893,0.0006244421927931401,0.00036873697432483624,0.0001447952843639865,4.570250048825902e-07,-0.00016703960832479376,-0.0003114024904658417,-0.0005040308341258118,-0.0007482950608927961,-0.0011092633099286028,-0.0016078677870829494,-0.0021868023470471044,-0.0026802145006056717,-0.003115253456881437,-0.003681837566286922,-0.004209135980468876,-0.0046791998148505405,-0.0050936493015332485,-0.005380300236917601,-0.005601300205415488,-0.005774229672144147,-0.005944819306847312,-0.005995883284534993,-0.005977808733797835,-0.006037980698940331,-0.006098456217787711,-0.006140586683074115,-0.006155670823276107
-0.006176995909142544,-0.005879809169535423,-0.0041745473161342635,-0.0016856751867264709,0.0004843257066005054,0.0018184650211905385,0.0027417181754743032,0.00359043467210563,0.00406071446636511,0.004285897888486415,0.004301997285683713,0.004130634685711558,0.004011518272103885,0.00387846654183572,0.003716290090065341,0.0036707461565859256,0.003629978808816498,0.0035252523246648683,0.0033023538656696307,0.003004039452820251,0.002649348208316989,0.002303528458176629,0.002024671807465207,0.0017444839224674386,0.0015658162114741392,0.0015294739359010502,0.0014445541155491946,0.0013611790121748177,0.0012807375073684657,0.0012533077292683366,0.001051098137484586,0.0008249220545101066,0.0006430188997902468,0.0003215189979827171,-0.0001365568798638295,-0.000649344832557356,-0.0011179997981125773,-0.0016026849460185578,-0.002001249734280844,-0.0023715562116439384,-0.0027337867790066107,-0.0030804486045856025,-0.003452779100841633,-0.0037812129204324073,-0.004080712508740519,-0.004432220387938224,-0.004888052397743173,-0.005315494010000026,-0.005645843913845021,-0.005848080758141368
-0.00524237333507186,-0.005216747968794263,-0.003539987483788945,-0.00032078933979783314,0.003780508918804932,0.006732264445564172,0.008400337957029477,0.009233785221605912,0.009491618770176232,0.009387111118480146,0.009034354049918262,0.008390938795215984,0.0076803066044392665,0.006885857032608507,0.006151991422180864,0.005395144290767835,0.004584623680663251,0.003859160456326163,0.0030642317521564115,0.002267179329875852,0.0016527936832127037,0.001150782045091281,0.0007012632743076848,0.0002875199296456953,-9.757224045616955e-05,-0.00044636190206979505,-0.0006204694305953864,-0.0006860003419606533,-0.0007443929796435596,-0.000992853466974661,-0.0013678387003976797,-0.0018011725843795955,-0.0022640272790429208,-0.002670614329649711,-0.003011544700980931,-0.0033355516801845918,-0.0037959463851367317,-0.004188530271425125,-0.004479750906796382,-0.004733158925472405,-0.005007452626210439,-0.005149947552278665,-0.005208437459908096,-0.005392045563309135,-0.005416271015028553,-0.00535537726776792,-0.005328842594953475,-0.005343416502179723,-0.005360319161273459,-0.0053602162840344775
-0.007474286813856899,-0.006752693572684922,-0.0046214763542772605,-0.0017874678328946305,0.00029775268072838087,0.0017803231460208698,0.0028344978427638536,0.0035683561578957112,0.004072740629078317,0.004342519128251654,0.004399282018830945,0.004342058032602975,0.004204126232554359,0.004073602533515517,0.004007421717431257,0.003965866851898347,0.003919951680150005,0.003840566389930862,0.0037275081189273277,0.0034493610729923966,0.002934639183913852,0.0023737043558706306,0.0018720339485339315,0.001545026023339105,0.0013326015414921776,0.0010796003137199626,0.0009820546434341573,0.0010535949856578662,0.0010442247945242839,0.0009813051894229756,0.0008657949087077536,0.0005818524003319104,0.0002929567744564764,2.288257001819126e-05,-0.0003292513350052239,-0.0007138742791800132,-0.0011710843017318554,-0.0016678904988849381,-0.002194970376013501,-0.0027171371460506747,-0.0031551368707779213,-0.00353609204149166,-0.003904392802369333,-0.00426286494876195,-0.004714125665723492,-0.005132193811565869,-0.00547894040373424,-0.005842848740619892,-0.006155866998388326,-0.006390004987939232
-0.008057763027006943,-0.008022855546880241,-0.006517732607650749,-0.003681084685948243,-1.3760659388353086e-05,0.0027948319405954013,0.004316446855332614,0.00530940403451423,0.005917540308524796,0.0062084561538177825,0.0062338785267251964,0.0061271786482575375,0.0059803807785932086,0.0056187136712619245,0.005206776389728923,0.004908141493174376,0.004680884812992366,0.004522515402460137,0.004256506049004452,0.003866666298074471,0.0034506600698934508,0.002888488323719184,0.0022849356143200593,0.0018319433085138737,0.0013895374095686326,0.0010169262518882798,0.0009146393839446753,0.0008994954706550432,0.0008661873877509282,0.0008502900313867689,0.0007898769625907718,0.0007577343032398157,0.000690803255842757,0.0004406784675925375,0.0001053767849589987,-0.00019838241831164993,-0.0007214012347145683,-0.0013904798798119538,-0.001976830517255228,-0.0025572568175551975,-0.003150836754925992,-0.003742075069588094,-0.004333127964192489,-0.0049078382872144565,-0.005335658459103047,-0.005811942225113678,-0.006348880549428002,-0.006784651840660265,-0.00721887994247174,-0.0076921448441731885
-0.008224489064169812,-0.008007687638019362,-0.006664641226412141,-0.004098271617420632,-0.00036840305916561387,0.0023200143264565463,0.003853370404655495,0.0047822608539876375,0.005340743158006542,0.0056767505911313925,0.005849620772306803,0.005771824054770865,0.0055564546683297715,0.005244929738595104,0.004809597480290166,0.004539876132983341,0.004468808794917332,0.004463358009875603,0.004296325707529393,0.003958508903881483,0.0034991210852024467,0.002949732104092769,0.002380890286094081,0.0018606757247537533,0.0014665170079015805,0.0012356236042677196,0.0011637829051888223,0.0012018843897809253,0.0012394889446372746,0.0011719006375580394,0.0009238480098336377,0.0007127041077383988,0.0005084410499254561,0.00022824014792137805,-0.00019004719201405184,-0.0007547146391086185,-0.0014087243859114984,-0.0019851964248797918,-0.0025776633210869387,-0.003206394428639677,-0.0038107089333674223,-0.004223773410821582,-0.004572690727449202,-0.005044676986149502,-0.005380941410581631,-0.005701712118972335,-0.006151323552215418,-0.006741725725246037,-0.007206702433218377,-0.007398076215346598
-0.007826666593950999,-0.007762636543220573,-0.006696895716401286,-0.004238041328125287,-0.00038228150194325556,0.002671180777084319,0.004549828256485389,0.005535230733375075,0.00617695411007568,0.0064878262420210095,0.006560552793825645,0.0064121778885514,0.006020521135890473,0.0055540552826046545,0.005184037019722226,0.005009914646640443,0.005010057852598579,0.00491220434478381,0.004638461726426674,0.004263507646111978,0.0036959040106582085,0.003105099315309303,0.002585464245146373,0.002188441789143375,0.0018833758508102947,0.0016768548193118707,0.0015650981801584884,0.0016365505371815014,0.0016177185333320883,0.001428536026750636,0.0011651801442824103,0.0007939815907884428,0.0003937359451712841,-5.4642019175578697e-05,-0.0006311207396155434,-0.0013175311979047102,-0.0019813572354788938,-0.0026118421902220075,-0.003256835726145245,-0.003794593810495365,-0.004273146719207758,-0.004701410404057927,-0.005032988955755754,-0.005384778677938325,-0.005703823698978485,-0.006020327013728301,-0.0064215755925954975,-0.0069981158513224406,-0.0074806823068297905,-0.007644208871546522
-0.00826384083505717,-0.008287509245481956,-0.007105081458730814,-0.004380807937903002,-0.00017803812366321724,0.003129200991729116,0.005070606880602058,0.0059239196347714435,0.006490004481391018,0.006768435702888308,0.006771816171068886,0.006539336568385083,0.006201067794021679,0.005841021952608209,0.0055299317348792235,0.005334098042671613,0.005317172602496461,0.005224067977223282,0.00500606474099176,0.0046202585018791,0.004072483425994839,0.003526734138903159,0.002956430428262615,0.002386188017303077,0.002177178422642051,0.00189165433624179,0.0017117864746986362,0.0016473908724583476,0.001589834034917382,0.0015495892360956921,0.0014163031504049225,0.0011284961340463167,0.0005740238262275251,6.652772020081601e-06,-0.0005910409401475673,-0.0013585406233300422,-0.00201980871179266,-0.0027249316734638393,-0.0034704793706565058,-0.003989124272606602,-0.0043612054660887994,-0.004656685022863241,-0.005009442323891824,-0.005481063023238935,-0.0058157535270044625,-0.006027793961824121,-0.006386874201113481,-0.006867218835882234,-0.007334266282285062,-0.007704798780807494
-0.008263631730654239,-0.00795787584613904,-0.0063270751778556535,-0.0033721922867559905,0.0006889448153203084,0.0038294141496466477,0.0057849136629450695,0.006889970159082425,0.00746713731587227,0.007607572772634731,0.007419789090853016,0.007186955128361876,0.006864060494955656,0.0064755387505008215,0.006162343540845126,0.005843104583848513,0.0055452310165057155,0.0053395724103094296,0.005046739218129451,0.004648526097658409,0.004147967299084567,0.0034458709817024504,0.0027247669164389204,0.002125651867985969,0.0016713913464446793,0.0013120700262718155,0.0010773700990094246,0.0010621216648747525,0.000983297411161725,0.0008390578920044128,0.0007323563136045786,0.0005039427787698898,0.0002198794027598795,-7.151844454095834e-05,-0.0005678204768581974,-0.0011925099395254167,-0.0018686956675181146,-0.002550816526376938,-0.0032301777752098606,-0.00389275296343015,-0.0045108160384845705,-0.005037171947927233,-0.005457855410974058,-0.005796776118840967,-0.006216587578872718,-0.006627192514155189,-0.006951572930560768,-0.007283139553588194,-0.007595423214033103,-0.00786824461626916
-0.007625596475428959,-0.006920427642142912,-0.004958253077559409,-0.002002577846531151,0.0010150314354409988,0.00330512588517757,0.004571437485382599,0.00544401483558078,0.006048127498228571,0.006391453116701883,0.006503127498028614,0.0063896039571161006,0.0061233793292993334,0.005848302671197897,0.005538832843288297,0.005177190568025708,0.00481729807479048,0.004413120491875821,0.00401698178979172,0.003556654025055919,0.0029648543925079587,0.0023603394992545955,0.0017716500683050587,0.001216722718821108,0.0007624641772284349,0.0004008265586047816,0.00023809490802363935,0.00027689215147354453,0.0003349259697109265,0.00032427964914343564,0.0002252114218421811,7.565548545965824e-05,-5.899142358901992e-05,-0.000229629851091262,-0.00044783596080620337,-0.000716160323199705,-0.0010713720323380332,-0.0015555336269921578,-0.0021578915267293506,-0.0028221754188148744,-0.0034224940558390104,-0.003918741135296765,-0.004483143738570476,-0.0050659312659853675,-0.005587302830509997,-0.006130708176936855,-0.00665790952204812,-0.007021617051796532,-0.007353627147749894,-0.007701499724205332
-0.007754098262347346,-0.007732004754122024,-0.006309011426347093,-0.003554482190997044,-0.00014938773617869885,0.003296221389893937,0.0056663222752647985,0.007057429960946992,0.007698402082489427,0.008071767165916292,0.008333506372369867,0.008370216253737236,0.008144393020726358,0.00768849095071067,0.007114795088401828,0.006467363529734418,0.005762145184212737,0.005017428524927761,0.004169083137219063,0.003378727394509444,0.0028313313741058143,0.0021809072409578524,0.0012936823070143683,0.0005973153453551669,0.00015593511110029943,-0.0003086289302222146,-0.0008001444273284154,-0.0011310627390666481,-0.0012519043093303646,-0.0012514540602138887,-0.0012036578211971846,-0.0011691676151095918,-0.0011455126947713947,-0.0010283378049979507,-0.0009176763664783382,-0.0009367799807204184,-0.001062795610328961,-0.0013071672856222716,-0.0016274797813988196,-0.0020023419420150644,-0.0024571925358534323,-0.002994044039577543,-0.0036142905568189955,-0.004227931101035379,-0.0048179006904188,-0.005410964890901212,-0.0060153741003383795,-0.0066117234967005625,-0.0071007745637250074,-0.007468312887453444
-0.00822248801208756,-0.008221365424655114,-0.0076793791887443666,-0.006051923336242333,-0.0024209294373655653,0.001317797371638249,0.004111039039213735,0.005422322647569031,0.006345705924900817,0.007025437666855867,0.00724730066728884,0.007144240666465801,0.006902462239801287,0.006622938119413528,0.006137578643052137,0.005658603212938576,0.005450904490302843,0.005327215405836263,0.004990928420454236,0.004583256846922819,0.004183026451312728,0.0036346725947350904,0.0030297782189852357,0.0023800901023445327,0.0017168241661786564,0.0013011892683853941,0.0010870510529878922,0.0009584183737866018,0.0008785517870383102,0.0008196877567747793,0.0007556357357333733,0.0005761867541961873,0.0004088087875623282,0.00020376993735775025,-0.00025550090985827534,-0.0007966174701333208,-0.0013724892410564116,-0.0019756715510804135,-0.0025876743934534364,-0.003201092477881636,-0.003839086131682663,-0.004335926423934086,-0.0048328659920138205,-0.005419703340056744,-0.005896561796359923,-0.006356065830797003,-0.006815172477971497,-0.007302245504054204,-0.007747512664467729,-0.008110293959676542
-0.008077090834539214,-0.008269440723310692,-0.007592418141396386,-0.005849152072730342,-0.0026737415786805725,0.0005963131889698305,0.003209790660713317,0.004679346074891408,0.005720993281605837,0.0064101791503544696,0.006486821252014623,0.006395903424879869,0.006205371391123104,0.005823595492109753,0.0053937659155147595,0.005020648957581584,0.004794891057721728,0.004639808824584627,0.004454069156351022,0.004122809390433967,0.0036144800015028545,0.0030336961015959424,0.0025025099253757344,0.0019498033388045662,0.0014343143292676161,0.0010403761143489704,0.0008144553899957652,0.0007497737081142153,0.0008153046221751075,0.0009184538826264673,0.0009608350891082713,0.0008694050381847607,0.0006351747543560935,0.00032767018454701744,-1.0237936920884453e-06,-0.0003557030723624263,-0.0008323089960624008,-0.001449349159259308,-0.002033079661846189,-0.002580116348996214,-0.0031266107459067384,-0.0037653805131233056,-0.0043698066690666115,-0.004879922761546994,-0.0053356781701565745,-0.005714605450023301,-0.00605126826394513,-0.0064707038479878244,-0.00683457128709365,-0.00707834575057843
-0.00801642946448989,-0.007844347564535219,-0.00622413399181472,-0.0032383924928817615,0.0008400510853211669,0.004209232315350748,0.006300582877749458,0.007548624669631597,0.008105347081268616,0.008242548431112582,0.008331295296370056,0.008147029483138276,0.007671438383759339,0.007067854137191498,0.006401655544573932,0.005707665654141428,0.005151878612208125,0.004613512113175304,0.0039014230266601804,0.0030966613085318235,0.0023428972065253797,0.001648783693044035,0.0011422981381198783,0.000842311090248299,0.0006220630393467179,0.0004182342969756033,0.0003568879844220448,0.0003943041896622685,0.0004533776817846535,0.0004457194706759627,0.0003447496605166577,0.0001954746944198346,-7.375603421263293e-05,-0.0003469866424084692,-0.000698814519344836,-0.001178186852412026,-0.0016666281896467777,-0.002295932799770624,-0.002947433518052816,-0.003501297032411401,-0.004045411991855326,-0.004687011688374062,-0.0051662724414387184,-0.005518211717166637,-0.006079441880606201,-0.0065616348428922285,-0.006890347672438117,-0.007217223658538458,-0.007516183996488558,-0.007769260518304346
-0.008187850445312877,-0.008218205441167246,-0.007080053966306155,-0.004506866531623074,-0.00026745121634361494,0.003904429856361874,0.006914968688632549,0.008277842879806704,0.008910130432919798,0.009132642528446205,0.009125175898890479,0.008906696482207963,0.008306698505796224,0.007510600303907334,0.006737509420378882,0.0060778733275265616,0.005574728000530955,0.005129212275731697,0.004573089527794701,0.003974043545347659,0.003336915149862894,0.002721867221880809,0.002178679271171452,0.0017153120536324167,0.0014276088264008934,0.0012318822061141914,0.001003708996708293,0.0008082013100289107,0.0006434735700193265,0.0005605481257328463,0.00023429119452035837,-0.00016549752903509095,-0.00046335732398446666,-0.0008430138075699802,-0.001323874676163667,-0.0019903036499134058,-0.002736750968713445,-0.0032943235683673194,-0.003905105082002617,-0.004556249628967897,-0.005180477478144539,-0.0056180356750025065,-0.005857935646891478,-0.006209346678094423,-0.006459775786714623,-0.006703748258211988,-0.007063976842351957,-0.0073221662130553925,-0.007541824775510318,-0.007761737707514633
-0.008894334673193525,-0.008526081674089515,-0.006324047601740604,-0.0026972844481226365,0.0014276919156526804,0.00424601045414549,0.005905653817504267,0.006815346705687729,0.007204371435060683,0.007282869675116288,0.007287178007819389,0.007171337112651577,0.006756583057037678,0.006270230934262008,0.005897432244550346,0.005639053027084357,0.0054724336850486294,0.005335462217773479,0.005008256796453224,0.0043335825032671145,0.0035845843667731358,0.0029086322654533698,0.002366675189286593,0.0019127164321333418,0.001516080181877759,0.0012359271088536322,0.0011011022786591184,0.001047869898057036,0.0009927984200570677,0.0008828837086931663,0.0006476413915395067,0.0003864986430595454,5.472738380087979e-05,-0.0005972559641286554,-0.001171255562649001,-0.0017684897087260486,-0.0026641248890761724,-0.0033732327861138956,-0.003937391060912792,-0.004499906518141278,-0.00508800315438137,-0.00558062531289979,-0.005978567987982843,-0.006470605341872266,-0.0068888169742855766,-0.007246036953740525,-0.007594511032468911,-0.007924904436414922,-0.008233686047646302,-0.008518214931684694
-0.008120980512548481,-0.007972498685538478,-0.0063288324845993315,-0.003379015752736539,0.00030284844130511787,0.0031347858867727453,0.004861602648759277,0.005852010169983005,0.006469362917512954,0.006817120502110006,0.006744432352094048,0.006557172044826464,0.006329146047415782,0.006011946717999607,0.005626289126997708,0.005311145711244183,0.005067838483793356,0.004799134018493802,0.004549652949135983,0.004277788967819081,0.00379276105906328,0.0031738798320136586,0.0025971830853824835,0.002110516303575109,0.0016811022351222004,0.0014098676663174313,0.0013013601017161014,0.0013258047619037771,0.0012944559229947862,0.0011561043436837505,0.0010159716265223933,0.000724330690816426,0.0003311681052739322,-0.00010482727959109792,-0.0006224265430234271,-0.001212640365696314,-0.0018013002389418256,-0.002393180738194071,-0.002983538508228826,-0.0035753440024235417,-0.004213253114952048,-0.00475278608400395,-0.0052317739969409156,-0.005673286966665985,-0.006139797692805068,-0.0065442035619756285,-0.006854693336940904,-0.007196281985577758,-0.00759018549767984,-0.008041247544119001
-0.007427061110591149,-0.00743695981088373,-0.006317141200987737,-0.003994369905828321,-0.0004302605448349315,0.0024821312659692994,0.00414235994060471,0.005258070473979238,0.0059964485429589475,0.006365895537249975,0.006459951879535444,0.0063423398650657515,0.006096542515669079,0.005865923576247447,0.00549020216592191,0.004948193819700153,0.0045521451063171795,0.0042763623764470555,0.003953988888308084,0.0036323105525926163,0.003307601391841411,0.002841194275022271,0.0021626326157321955,0.0016328666242273492,0.0012509372023910997,0.0009236816283390611,0.000754557829921049,0.0007828433045989017,0.0008528053099049445,0.0007398605944971459,0.000588345705669353,0.000453705196011699,0.00037970402768654156,0.0002622187175762323,-3.68531911255147e-05,-0.0006293217357077219,-0.0011796847627129118,-0.0015413035383461948,-0.0019385205967227754,-0.0024983656421703948,-0.0031252916564255056,-0.0036316591097429775,-0.004107796044961462,-0.004599578164378599,-0.0050982873800350294,-0.005579161129006188,-0.006036586131174264,-0.00644053526655566,-0.006809002022880704,-0.007152591313559742
-0.008020638239635879,-0.007781208020185729,-0.006458368316094655,-0.003943926898413949,-0.00021907137164422943,0.0030606669193562843,0.005441896624809193,0.006885936415129752,0.007480651841863051,0.00762213394606467,0.007591054652574874,0.007359766853329308,0.007027629582377668,0.00662574277439726,0.006110338193347917,0.005554086169610013,0.005084576699223318,0.004838288460628604,0.004563963654978731,0.004126052290651575,0.0034794450405660504,0.0028223028340213178,0.002202950379768016,0.0016925570922082147,0.0014712617030794009,0.0013227302067887708,0.0011511515187943681,0.0009910444062264045,0.0010359343037559818,0.0010994010680465684,0.000853822094983096,0.0005313623877147618,0.00019389430120950456,-0.0001490127638724337,-0.0005214486677330055,-0.0010731938403620235,-0.0018134698977015653,-0.0025028179269281237,-0.003168456691103813,-0.003818776164560376,-0.004428674124616075,-0.004928294113859496,-0.00532400625481892,-0.00566696489497167,-0.006069716939194967,-0.006485611835905122,-0.006873810099257036,-0.007294264676754688,-0.007658676997046965,-0.007914592996601624
-0.007807987823265517,-0.007366561141713665,-0.005749168427364757,-0.0030774948409676406,0.00029003123883817553,0.0029297503055649068,0.004555761925379563,0.005625722577823464,0.006206763339958619,0.006442790408704564,0.006559411997551055,0.0064765253356249015,0.006211979157211285,0.005843371563599631,0.005441980867241276,0.0051045294514567695,0.0049349834779833755,0.004822828763657326,0.0046262553880979385,0.004214206888740063,0.0037648028608584976,0.0032770412601211,0.002705463354155402,0.002054484376104392,0.0015585063398071142,0.0013962015792579438,0.001151809999452791,0.0010218300271194424,0.0011566106097606844,0.001024000600533639,0.0008434575142205273,0.0007886132342754687,0.0004990579724390077,0.00016124670379921103,-0.00011997351223125807,-0.0006395051316340722,-0.0012090888327592635,-0.0017186223889450003,-0.0023155718049469934,-0.0029710028966660786,-0.003615512334250756,-0.004104109641469381,-0.0045642609378331485,-0.005021284042564052,-0.00532720006240949,-0.005753582289008734,-0.00631946297345351,-0.00669877176043975,-0.007027728244102159,-0.007375150876169552
-0.007166631717056284,-0.006816247695386357,-0.0051703832944746415,-0.00247527165452986,0.0005093286044567201,0.002967260275817349,0.004448265916786612,0.005527039981356835,0.0062070159834501665,0.006383601470612117,0.006433635864188577,0.0063785847223208555,0.006045965412228652,0.005716807260167421,0.005382759926018617,0.004964198131844017,0.00462376211567545,0.004309068372058534,0.003973413926373666,0.0035744299333230643,0.0030295760882251563,0.0024420906192044694,0.0018140955709110332,0.00116555610364449,0.0008117354297224797,0.0006836418085561645,0.0005500703944079852,0.00045012818786055204,0.00045842730257773085,0.0005452911774152828,0.000539045584823911,0.00032137196160813176,0.0001417556756176593,4.146963993883253e-05,-0.00018492745683229843,-0.0005013512923881007,-0.0008483745773092145,-0.0013117329712454815,-0.0018091540497705508,-0.0023278064663416398,-0.0029216327725250517,-0.0035314914675203617,-0.004023411429757168,-0.004510172734250721,-0.005064123245766919,-0.005428377502123265,-0.005743416969454169,-0.006272449333486088,-0.00671487679936481,-0.006975341392681261
-0.00736768310632341,-0.007333118262016623,-0.006036858311641588,-0.003579356134151484,-0.0002802745319330148,0.0024661709113652647,0.004090491499348195,0.0051811525110049515,0.005840736848271681,0.0061205566760344525,0.006099828675077701,0.005938222972799942,0.005738344934780566,0.005372300552558769,0.004989231799562757,0.004736378030600175,0.0043756191362726935,0.003961261061424278,0.003614416403022622,0.0031800436832200283,0.002676765588290101,0.002205420957558649,0.0018162753190253827,0.0015325871813051408,0.0013657080907213412,0.0012113999912542325,0.0010446732445584957,0.0009063207880293264,0.00081281308154329,0.0007748337008244139,0.0008019257345496377,0.0007396417904237591,0.0005356552549723084,0.00034846292007689804,4.933440461735236e-05,-0.00042739463405011893,-0.0008707362535246909,-0.001318422434957525,-0.0018307836955587168,-0.0023926603909400603,-0.0029842758756857533,-0.003572980544154504,-0.004057101507423933,-0.004480453989709412,-0.004934712665589725,-0.005322326193915287,-0.005660032486280898,-0.0060286540346027335,-0.006391300930861122,-0.00673443926004218
-0.00735785853013122,-0.0067080782968068405,-0.004555262615254636,-0.0013149050881974178,0.0016620749791333266,0.0038460284696232774,0.005076969173375143,0.00600291452676327,0.006544380345676448,0.0066191184656149045,0.006660814040806376,0.00653669830844794,0.006034520165123793,0.005564190230900944,0.005177561582606976,0.004683263278525093,0.004247649764367084,0.003941891367291265,0.0035203898761493593,0.002977386923031348,0.0024553484255052586,0.0018460356389327984,0.0013112988885184448,0.001057996454287444,0.0007850978922968617,0.0005497876402302433,0.0004825696218484881,0.0005135853687187506,0.0006283961904186565,0.0006803658737692727,0.0006383332738806763,0.0005445932339265152,0.00028891888480623337,-1.3996935438760814e-06,-0.00028290600938781727,-0.0006971223987979399,-0.0012269106811416289,-0.0017718214256375207,-0.0022852315096593802,-0.0028192265512621095,-0.0033651485849159114,-0.0038554682941094156,-0.0043496141980434175,-0.004869349711703644,-0.005332956417792169,-0.005756974019734575,-0.006187900010799728,-0.00662384325709583,-0.007067128916662377,-0.007521209004619208
-0.007455360351865311,-0.007524298881709171,-0.006596196305545914,-0.004539251812366053,-0.0010859261080329809,0.0020668427322571015,0.004188834663427564,0.005369238153654761,0.006085079711458619,0.006565181139847577,0.0067326182038522,0.00662002094416219,0.006356986090467295,0.00602721904122596,0.00556878800378042,0.005115462820629361,0.00480783549009064,0.004433979077907529,0.004003839147610074,0.003614098661287728,0.003180617628985471,0.002620021150916865,0.0019216704772995123,0.0012814068177802174,0.0008090855756961742,0.0005628121608267757,0.0005585301958054368,0.0004929688379352548,0.00039001680482805357,0.0004401572817741811,0.00045262711810678617,0.0004170522395572319,0.00033698013051303095,0.000242254780801722,2.0017354406238848e-05,-0.0004418991955327424,-0.000959479870616132,-0.0014594145367998106,-0.0020219095149969922,-0.0026109207909215263,-0.0031859352085863045,-0.0037167864638165534,-0.004246509274864297,-0.004763566684692481,-0.0052034847482503,-0.005724088948655046,-0.006294326617799667,-0.006661044356982317,-0.007038254684131044,-0.007519821964259446
-0.008113455860774946,-0.008076532581200875,-0.0065815029210771,-0.0037918516660367437,-0.00010236399441910734,0.00307277154365707,0.005191171469529245,0.006399231339108788,0.0070749985966617425,0.00745984279081416,0.0075419235422949284,0.0073572790536123025,0.006978922302149063,0.006521052857652388,0.0060391043116264495,0.0055965688512323855,0.005221583296876447,0.004807435961916672,0.00439533302483012,0.003920217462800784,0.0033052626895902866,0.0026199218571051008,0.0020576855120859887,0.0015747462427179036,0.0010866605704209654,0.0006937723015488974,0.0005351771373466381,0.00047700707177251696,0.00035998020520624255,0.00043119001031353813,0.000509610282910453,0.00042525491641398096,0.00038214103306081847,0.00012688974280176894,-0.0003421740709676647,-0.0007063390315242477,-0.0011152643536719575,-0.001629377958143975,-0.0021512650729664795,-0.002767945593044557,-0.0034302096441694257,-0.004033735514450978,-0.004564140381171663,-0.005029398812336221,-0.005517602058778404,-0.006028491720080399,-0.006527245701347419,-0.006941506976203082,-0.007348405349838085,-0.007781681439651807
-0.007640915016571985,-0.0070895212842708565,-0.00523558929597575,-0.002218317994230681,0.0013096176185940552,0.004146429343183106,0.0056608904113551045,0.006590834608360677,0.0071700561168503395,0.007470844056373941,0.0074225952382531955,0.007137990691335959,0.006797096936695097,0.006301858923302265,0.005771446216026979,0.005268421915579609,0.004614561616220092,0.0039128801130240195,0.00323803722882441,0.0027222406982376586,0.0022085042598945673,0.0015553055453451493,0.0010180554391000217,0.0005752402337050044,7.713088335720859e-05,-0.00022031739695103426,-0.0002748766755818144,-0.00024068056413801262,-0.00017880931579104315,-7.958979103715093e-05,-3.3868666966850396e-05,-5.53896529034449e-05,-0.0001322882588033012,-0.0003241000751038276,-0.0005948004270054487,-0.0008748358363707576,-0.0012340799951388415,-0.0016832675589522575,-0.0020879765614151653,-0.0025347488808430746,-0.003064855126317414,-0.003637339823257241,-0.004222154240932518,-0.0048282867685162986,-0.005375658312005244,-0.0059045839358739345,-0.006425549399329435,-0.006826663081111167,-0.007166271771939613,-0.007469703271242119
-0.007937256681765984,-0.008131439121231586,-0.007289278701973829,-0.005302966626595978,-0.0018495966310406562,0.0019903375070370664,0.005254437390764923,0.007047992831069863,0.007850666502446826,0.008258106806918292,0.008447732255512156,0.008466283510040189,0.008274428738092584,0.007795147904078759,0.007132887422106137,0.006357707921994299,0.005570842291247243,0.004865573497150782,0.004253833360267522,0.0036033249681961498,0.002884421311738103,0.002212002764059067,0.0015381971292622951,0.0008648424174152841,0.0003292946886633826,-6.5755479143505e-05,-0.00031612523317263035,-0.0004524605447969892,-0.0004206575778896748,-0.0002832935807411947,-0.00022351292364113166,-0.00016568110204027308,-0.0001893810198488315,-0.00039985698770987046,-0.0006654572497477012,-0.0009521085952105973,-0.001272223421000061,-0.001613691696775667,-0.0020640572170886103,-0.0027579328077415315,-0.003371668507379219,-0.0037978700739460195,-0.0045157279338146564,-0.005275596864746835,-0.005768341882437978,-0.006221354752619702,-0.006646735265260667,-0.007003024094315432,-0.007382974653818843,-0.007813361550046737
-0.0077986209965017275,-0.007806371237849942,-0.007103136623158583,-0.005507576800839792,-0.00258170701989228,0.0009588156819129805,0.0041322145823009335,0.006072913822920363,0.0071431153011327795,0.007686948464145509,0.007871134233812504,0.007787328555180767,0.007554440268856719,0.007179100726106929,0.006703490434999954,0.006192942758675681,0.005615655355308206,0.005011572611240902,0.004488079824383739,0.004015190267775234,0.003470270307948416,0.0028377923755704185,0.002116878155338682,0.0014358232473941279,0.00092559228976031,0.0006384899709728823,0.0004048724638097437,0.00026679157110589765,0.00028130327746893704,0.00029988955063264724,0.00027489126969827075,0.00023543625992055464,0.00016168125310544844,-3.2063553733210036e-06,-0.00031500003675776335,-0.000719047772138718,-0.0011228058948035032,-0.0016026088969003103,-0.002220511179095227,-0.0028069351515674747,-0.0033849540486614515,-0.003980972847371074,-0.004541387272075587,-0.005105141783595455,-0.005683817707309012,-0.006142991100448264,-0.006582158239317161,-0.007071521630918806,-0.007487653569840918,-0.00779872428739111
-0.007553976569842132,-0.007622989461558695,-0.006848672442248512,-0.004897649964994933,-0.0012747137178826795,0.0022497037856763357,0.004796101509526903,0.0060809506844939284,0.006860414719826197,0.007287955843130195,0.007408935439716272,0.007275554209343762,0.006908656619587633,0.006390529740466375,0.005796705815195689,0.00523876634380495,0.004799593343387911,0.004549417400320933,0.004252065959509242,0.003775330322861435,0.003218410835811639,0.002558327057215281,0.0020637456190266646,0.001675274598099147,0.0012900015198096327,0.001039967884982542,0.000896953145685344,0.0008376059322834815,0.0008599775888715065,0.0008286243968163671,0.0007875605121656308,0.0006414361378801056,0.0003215316345336381,-3.928323716425306e-05,-0.00042192021136613206,-0.000943606552775476,-0.0015291432240805358,-0.002089247509163914,-0.002705228751163629,-0.0033877334770032732,-0.003939472001865949,-0.004418107640496313,-0.0048985159166410625,-0.005386710950235903,-0.005797831315242004,-0.006179823036736901,-0.006587428243835359,-0.007008806173398014,-0.007393121296931281,-0.00771785390362428
-0.00744159182472044,-0.007492953603961997,-0.006645385138804125,-0.004559098979402737,-0.0008546409040500147,0.0022737260556507438,0.0043291443646746855,0.00546243590134305,0.006220105229806911,0.006584019734530292,0.006538500512482982,0.006314408054442491,0.005947524597711567,0.005484183125877572,0.005027690229532841,0.004698823766664695,0.004436383837280487,0.004091492072249739,0.003782698950448069,0.0034501221085139486,0.003020157520396742,0.002583958198219609,0.0020834279750578904,0.0015601380322689024,0.001306177309393542,0.0012229467705324273,0.0012057421773181262,0.001149540045727875,0.0011081986359164084,0.00104678864710045,0.0009028068453329095,0.000781153380036291,0.0005553967652116149,0.00011414696637197688,-0.00041737705485931455,-0.0010094262775829064,-0.0016557165731873043,-0.002355082361379177,-0.002912781680202402,-0.0033307305467834385,-0.003772367432835509,-0.004239469280142386,-0.004663950858434987,-0.004977125338314941,-0.005308791708918518,-0.0057503300235889464,-0.006281015045247088,-0.006587111370651736,-0.0068781057653220165,-0.00728857274278933
-0.005470113049908902,-0.005181571444661204,-0.003457660336936514,-0.0008149109442516017,0.0015587794648835522,0.003295471321457911,0.0043819810773038145,0.005035436427739416,0.005357163406176294,0.005379949384401427,0.005122608303505971,0.004767586042710738,0.004394903395342206,0.004041639966423911,0.0036337516146902086,0.0032553709340621562,0.003034887627958752,0.002742940074885218,0.002386466607262776,0.0020473572942600153,0.0017269685316924572,0.0013690490904622802,0.0009380842652271196,0.0006500025371947388,0.0005301189339700762,0.0005483249424161427,0.0006210604377371807,0.0007295780626074956,0.000834963309282828,0.0007543220137834128,0.0005794551356235586,0.000404444233559413,0.00020289617801997841,-8.922978051565387e-05,-0.0004933478205101608,-0.0009075238484222705,-0.001342721542173202,-0.001791379598170782,-0.002168096352997797,-0.0025294600931685526,-0.0029157194922979556,-0.0033288008977972105,-0.0037000364653412485,-0.004038633336579163,-0.004483158896704286,-0.004859851940754195,-0.005126580345520227,-0.005414690040824005,-0.005678777802270108,-0.00589531585241397
-0.007320030698526684,-0.007104958567096456,-0.005746775652900788,-0.0033154174533268294,-4.3296669136890984e-05,0.00266005844995108,0.004287287904858749,0.005241446585157146,0.005834959283625835,0.006138751249077059,0.006122133866141672,0.005925806500299358,0.005625424475142666,0.005217389157913529,0.004790653344865017,0.004373794422615379,0.0038736631442123056,0.00341814679120555,0.003097396108689692,0.002653066057516858,0.002007295358387758,0.0014252101349815241,0.0010950179770517357,0.000754923654980173,0.00041070111642068524,0.0003279184315772845,0.00035853348733009215,0.0004713185959281343,0.0005869221774400368,0.0005735260504208965,0.0005354814215193412,0.00042348939966381613,0.0001995520435258172,-0.00013969286400417573,-0.0004335987552606886,-0.0007387194636513364,-0.0011976731065327152,-0.0016929577412490029,-0.002200100922195903,-0.002724548090895518,-0.003232572889828837,-0.0037770821659808143,-0.0041935407280279955,-0.004507294097670943,-0.004897119124788543,-0.005341154838121414,-0.005811129294976395,-0.006288230893002521,-0.006660089447458375,-0.006879813617538701
-0.0074885158480345534,-0.0075552854615670625,-0.00674010912025434,-0.004808896340056183,-0.001333133714454632,0.001985156042364626,0.004481408973187686,0.006073294979026292,0.006897103186122931,0.007170734541386692,0.007216467438080432,0.007092257258340694,0.006807643924614354,0.006355679495456403,0.005756023291899614,0.005135491173519903,0.004659465550044348,0.004190752132383306,0.0037201133620959727,0.003267937534855889,0.002749972248694889,0.0021816551134687203,0.0016314173348356805,0.0012950460537284024,0.0010557060632045948,0.000797786021046917,0.0008058774875685182,0.0008571125050979725,0.0007535943527800094,0.0007969421859191424,0.0008218400082830236,0.0006739884694114435,0.00045553986202634736,0.0001031058726717514,-0.0004007414850459998,-0.0008864066615516324,-0.0013740657655899329,-0.0018799830232393735,-0.0023666210287673277,-0.002911064197423993,-0.0035045537886340414,-0.003953651142292999,-0.004416413231510175,-0.004961244916843829,-0.005504764313659429,-0.00597999267717839,-0.006360280449127448,-0.006657884738820789,-0.0069510085026924275,-0.007273968066862188
-0.007778408263588801,-0.007716819772516056,-0.00681438641257433,-0.004914357975720309,-0.001561707433647541,0.0018073375573091962,0.0041387217537985875,0.005583092268226926,0.006500549459616845,0.007041319509414945,0.007283131508128215,0.007304290432926587,0.007120015130959348,0.0068124136065437135,0.006412577139640748,0.005899933895337296,0.005413631432289147,0.005000688163643735,0.004643928485846407,0.004194952882355407,0.003649100422905232,0.0030377408071451473,0.002396116747021035,0.0018612031048309237,0.0013218152706551988,0.0008304530362577372,0.0005886846822349452,0.0004498402737533298,0.0003636141823546513,0.00041933363944509483,0.0004600168241325833,0.0004295152329852966,0.00032118445423053835,7.387344128245103e-05,-0.00020496862504797646,-0.0005508908250641853,-0.0009169818831251508,-0.0013697048979108709,-0.0019179597578633067,-0.0024330065267418955,-0.0030411630771477504,-0.003711739224130696,-0.00426888138773218,-0.004802527028146915,-0.005361679126720009,-0.005885266510088412,-0.006353550065203701,-0.00672695735069755,-0.007151444372053209,-0.007678592270933229
-0.007045933132346792,-0.0068483033635805945,-0.005687260772637166,-0.0035067844906113074,-0.000458471638439696,0.0021111785780212377,0.0037911448567170456,0.004901638438809712,0.005666032321436448,0.006043377481930694,0.006115248448512847,0.006032694131382174,0.005714148787441881,0.005300800147183243,0.004929210916510865,0.004614010767061503,0.004368734876693453,0.004151088099549172,0.003981225057087571,0.003735434450348709,0.00331267632839772,0.0028672522860260542,0.0023329242258809664,0.0017702642005246042,0.0014576571386358188,0.0012226094562635507,0.000988018047640646,0.0007620648911623756,0.0006950959770452693,0.0007540879452711121,0.0007768981080068036,0.0007803967375737842,0.0006090735476621277,0.0001682520360459725,-0.00022410428530656953,-0.00061994448598977,-0.001032654630264938,-0.0014990533572281058,-0.0020036889971557855,-0.002543771720747615,-0.003121404311531634,-0.0037125889172678153,-0.0041973687640136535,-0.004571122284891959,-0.0048726519290879615,-0.00518068660870131,-0.005576803144578363,-0.00597328683707708,-0.006379489360414861,-0.006807881158146295
-0.005801073683788918,-0.005389011786625713,-0.003822062093686936,-0.0015276544555408087,0.00040912171703394006,0.0019794144554867955,0.0032077240371745043,0.004063747999345717,0.004539636528373751,0.004696368543233109,0.0046528158235174255,0.0044430592922888815,0.004117638194436184,0.003766901884109374,0.003434635880085437,0.003183952653452749,0.0030986237574902116,0.002947339671799145,0.0025426894591642924,0.0022055559158647687,0.0019736621796201757,0.001695313629020078,0.001356815205588289,0.001069264474253256,0.0009491591029507083,0.0009370687351989763,0.0009427259303059927,0.0009191013618374571,0.0007878409643524886,0.0006881462574814346,0.0006037654429369912,0.00047808411059019454,0.0002959549847436585,-1.514330567058635e-05,-0.00038639982928709564,-0.0006911818385913711,-0.0010305843816067373,-0.0013682137379802655,-0.0016976526317481811,-0.002186708276617748,-0.0026680223503868002,-0.003010551959112092,-0.003402382173284583,-0.003817374244406438,-0.004088519100080658,-0.004384405420489377,-0.004748431037996659,-0.0050176413284871105,-0.005327443663317439,-0.005746925643019894
-0.005541911769159455,-0.005515831248973304,-0.004751142638040766,-0.003226437750867565,-0.001001850400093423,0.0010047264623414907,0.002450360733643521,0.0035152666232110222,0.004168291679046749,0.004476705740739679,0.004522367912725122,0.004409661648537313,0.00431443963695659,0.004084151212088983,0.003749955260552278,0.003509289675283725,0.0033674574921102145,0.0032012874178324593,0.003014263035870111,0.002814612939651835,0.002536346301894825,0.002058678855639088,0.001474308537930411,0.0010443555664786234,0.0007912866814952863,0.0006306686945825764,0.0004995693663751252,0.00047542849469509084,0.0005112555464472468,0.0003832685456766464,0.0003659978784840922,0.0004067171571567284,0.00036114875695715694,0.00016292986286120726,-0.0001476191502462746,-0.0003316404403704155,-0.0006398418905149922,-0.000981140183416006,-0.0012291731485622318,-0.0015817034578275533,-0.00196716518145648,-0.0023561673652297546,-0.0028144771521610335,-0.0032851765061604693,-0.003661835272201708,-0.00399374099288589,-0.004314928955902597,-0.004631949316522382,-0.0049065476519193334,-0.00512633270586277
-0.006988873734901901,-0.007002788949318554,-0.0058516860031678055,-0.003557463032219868,-0.00021655541250151347,0.0027037792655550527,0.004527843721678254,0.005633505498297288,0.006303935934705291,0.0066922577415009805,0.006741516877751114,0.006524451736943801,0.00612079943911102,0.005606027009064725,0.005077862539363094,0.004607100631477529,0.00404369018779582,0.003431432637256229,0.002857665822210787,0.0022066040852429135,0.0015646296369473695,0.0011118269760366493,0.0006592408467804167,0.0002185369877574196,-5.804670246484317e-05,-0.00011664133205397925,-5.7871580978902725e-06,0.00010172152952302883,0.00024600985338021913,0.0004133363532543241,0.0004848924538167335,0.0004545099378165478,0.00032701510369564457,0.00011517764161950179,-0.00018007998685624487,-0.0005548737036145147,-0.000988293193608826,-0.0014397590809996875,-0.0018927082595276952,-0.0024678531490122477,-0.003066423512665053,-0.0035580093373794672,-0.004056795628958174,-0.004585525812902801,-0.005130768580870512,-0.005591240469945266,-0.005963358582210138,-0.006297830780752066,-0.006662103354086053,-0.00707932643951552
-0.0061501232967427315,-0.006101051036985151,-0.004952958064439669,-0.0028605776124712764,-0.000226476004989993,0.002044286647667366,0.003612521344062632,0.004468604869300934,0.0050098108629845085,0.00531518407499576,0.005308957508036309,0.005186028186554396,0.004946410046126966,0.004515042896004918,0.004096828956706197,0.003777442207158971,0.003586109051341175,0.0033662864579499796,0.0031226206933006183,0.002894789321251961,0.002560627380078566,0.0021579364386762655,0.0017682970926007858,0.0014308545619543234,0.001132244294342879,0.0008844179324293444,0.0008908186192091081,0.000998320460788764,0.0010448780959472072,0.0011054178888093651,0.0010543119941767796,0.0008327229526206741,0.0007043019540126694,0.0004580674891292221,-3.971483209589966e-05,-0.0005760156266403246,-0.001074328962724968,-0.0015214837815641351,-0.002000607625568593,-0.002443463289875973,-0.0028410889172715437,-0.0033170311970994277,-0.0037038709135427507,-0.003966745612532735,-0.0042950056089513695,-0.004647616221541934,-0.005001142375980072,-0.00536432237876342,-0.005728284244507931,-0.006088871181150959
-0.004348184963329298,-0.00419287452747827,-0.003419142020897428,-0.002067306762300177,-0.00026786294065036007,0.001307864645389098,0.002466194387903125,0.0032971324678412375,0.003733612087279438,0.0038344848089343813,0.003758947521466262,0.0036208076782560297,0.0034170532437026884,0.003100173120679512,0.0027813665950765258,0.0025168844401955662,0.0023354938173827744,0.002138395861815518,0.0019368889596870133,0.001774516070808876,0.0016307121495227116,0.0013955414505324975,0.000989480416693446,0.0007272395229749165,0.0005947808606936945,0.0005191096928596538,0.0005282874986900124,0.0005696223823242581,0.0005874806765931045,0.0005734061167801984,0.0005557819885978351,0.0005316017329391787,0.0003689698496416994,0.00012954132088911996,-0.00013714518366999862,-0.00047053496139112425,-0.0007870901081982652,-0.001063758903331363,-0.001436096950231989,-0.0017793012372259434,-0.002036203696312742,-0.002297892194968192,-0.0026208490804358183,-0.00296592045590643,-0.003138292959317739,-0.0033962331741620444,-0.003792689462720114,-0.004104007970508427,-0.004327966842791852,-0.004469404020178109
-0.004809200173601582,-0.004857645230615297,-0.004740192996493608,-0.0044434035891391345,-0.0034246077417985146,-0.0015667324368279925,0.0003260476861315616,0.0030181234390723394,0.005592036362324885,0.0074296635795246466,0.008268805757447444,0.00852405586366723,0.008596089815387793,0.008428986923027279,0.008040335358100276,0.007618544387590411,0.007210715342979441,0.006662330370721856,0.00589888704359315,0.0051553961912089805,0.0044361389812960115,0.0036627419713939555,0.0028017579238609406,0.001817976117002156,0.0008417397231508497,-4.5758181274399643e-05,-0.0008029077256592725,-0.0012706220064299047,-0.0016307896409654293,-0.0019388953868069588,-0.002115170563775896,-0.002252738175310646,-0.0024131025110452698,-0.002451812193353203,-0.0023923677942923644,-0.002381394116559998,-0.0024717081412943863,-0.002593444655978188,-0.0026963073954028565,-0.002805103898254732,-0.002991509472562327,-0.0033130645497786377,-0.0036137784608692666,-0.003944025143384605,-0.0043610120127929915,-0.004609669868155848,-0.004748168022866655,-0.004931916966648128,-0.00509956708382247,-0.005232957032414318
-0.006064767965308811,-0.005946756893720041,-0.005640733278007798,-0.0047207122477651055,-0.00198728641443533,0.0016805147313481853,0.005329905154254168,0.007390361667330984,0.008314020322172336,0.00858523484402408,0.008612042627677643,0.008491043507441703,0.008251997417052296,0.007837931042641993,0.007296559052361396,0.006700672170369341,0.006141716095462532,0.005567119444544414,0.004882677013552297,0.004099264645584215,0.0032484873751308964,0.0023782798559818276,0.00148421661686879,0.0005955311973041806,-0.00021653754788978415,-0.0008139115828356342,-0.0011636636234618272,-0.001317844555412255,-0.0013064078022977784,-0.0011894644713130583,-0.0011170123301100223,-0.0011008987646225076,-0.0011507806429162542,-0.0013034383950188018,-0.0015454226752441283,-0.0018653613388855197,-0.002270508177829351,-0.0027683355492034434,-0.0033363960465893462,-0.0037923084881597434,-0.004256580919569149,-0.004877508940925557,-0.005362993168108258,-0.005712389502703389,-0.006018993027324776,-0.00623060508161918,-0.006354004213107712,-0.006430956127097781,-0.006479662280901983,-0.006506144569160034
-0.0067924129261720395,-0.006946956655068987,-0.005811314351552368,-0.003428553355260466,8.053752126414577e-05,0.003715007299692819,0.005724617048025283,0.006778978986445675,0.007265805490754089,0.007630511860564924,0.007821459359581756,0.007665077102967722,0.007431204207451491,0.0072335448464834265,0.00693778838952438,0.006439676205827309,0.0058436288929648575,0.0053387522651753595,0.004865825399523927,0.004367697274456986,0.003819119421558215,0.0031965525306606466,0.0025072324202943747,0.0016731407382825172,0.0007927290683128772,7.629147778984232e-05,-0.0005085948841372554,-0.0010292692327339755,-0.0013668575044670402,-0.0014712230092563863,-0.0014321022773818482,-0.0013478155381409737,-0.001278677188844974,-0.0011852000470662068,-0.0010652487236461853,-0.0010210577143390143,-0.0011648187931758186,-0.0014833963843663477,-0.0018762311012922924,-0.002337394658580297,-0.002805306708284324,-0.0032829659054596618,-0.0037882742945036345,-0.004357871344602988,-0.005001346073636281,-0.005663936215283491,-0.006145566887968148,-0.006391471872623615,-0.006625686303340248,-0.0068847409747999815
-0.006244425307559259,-0.006311822783791882,-0.005553756051453543,-0.0038708195369318967,-0.0010903768536655572,0.002396685529504892,0.005547100673805354,0.007490674874172,0.008413722734571916,0.00863523480753205,0.008750453180913375,0.008764747475695844,0.008452439265124569,0.007986709077850677,0.0075605865208427,0.007009087599690413,0.006280745950551813,0.005540494431778979,0.004859650245149132,0.003988795847475217,0.0030112557825213468,0.002054867544758002,0.0010787558129066667,0.00018057317360988085,-0.0004892979095552669,-0.0009251923780365355,-0.0011794026542356092,-0.0014026011107527681,-0.0014412898966259663,-0.0012535649520448633,-0.0011150344948742466,-0.0010642219883104731,-0.001101413741247856,-0.0012836193262031701,-0.0015453109121575347,-0.0017822006028931992,-0.0020808649564644224,-0.0024870623233136744,-0.0028881833992449,-0.0032755776499809866,-0.003791544048299877,-0.004428888986514681,-0.004946779653029943,-0.005346706380476435,-0.005782440631456758,-0.006059930865564561,-0.006244077043101475,-0.006510157926563205,-0.006675961773763802,-0.006697688906503622
-0.006454081693610919,-0.006235210867540619,-0.0050854663916178496,-0.0031193940508207974,-0.0011889626602459168,0.0012500451118038383,0.003940186149867068,0.006613617030497946,0.008376772439681424,0.009183746519281437,0.009474169604541503,0.009416300106527425,0.009182991577496923,0.008922007619951315,0.008382782196816999,0.007605625208990099,0.006850726807381247,0.0061775146301373506,0.005464907433321435,0.00462381946491581,0.0038064270961939628,0.002902436037189058,0.0018700376783862963,0.0009372273763974299,0.00013585491800928502,-0.0005552787393903401,-0.0011172598493164865,-0.0015117953582089898,-0.0017045695550402817,-0.001777199561928291,-0.0018168769472924782,-0.0018272451947298214,-0.0018065549135909361,-0.0019057075782885206,-0.00213864557454273,-0.002331440854782434,-0.0025741971596291904,-0.0029310808662166388,-0.0033920826503139835,-0.003880229225600015,-0.004353632840543473,-0.004800784242490043,-0.005203596948513205,-0.005617028661283307,-0.0059889025399816505,-0.006345038439514995,-0.006644396354973038,-0.006799674095796505,-0.006915654052327304,-0.007019314539150814
-0.006689783300348494,-0.006557011716270185,-0.00545291276760847,-0.0034413525761358473,-0.0007620823038441718,0.001990888566965327,0.004320034646657961,0.005927299700461124,0.006840081181832231,0.007213690750316008,0.007273791819193813,0.007159854712159689,0.006861537706321365,0.006454048928186526,0.006006599143709088,0.00553277019411301,0.005147940297972364,0.0047960299138681195,0.004268449179602469,0.0036411691450258183,0.0030378059034026884,0.002494017136228232,0.0020508015769748313,0.0016594050979419224,0.001478216013002496,0.0014010597197909307,0.001289204146574021,0.0012639906745657182,0.0011554318418172229,0.0008439268094801633,0.0005271874973095592,0.00018571685160240686,-0.0001939058735471616,-0.000684179180215578,-0.0012167904623133622,-0.0017617440857383225,-0.0024017819987788343,-0.0030681813996810575,-0.0035806243033073048,-0.003983937874972322,-0.00451115623882443,-0.004905313195774176,-0.005109904011991864,-0.005321494260982665,-0.005602795962097269,-0.005909450429049357,-0.006202922453199636,-0.006492010852745856,-0.006703719672805225,-0.006806761577385842
-0.007017788229675123,-0.006914586625876087,-0.005875576758187356,-0.003918772414582636,-0.0014171253999447704,0.000637399274083157,0.0022710757951046323,0.003620197117178205,0.004684441632981766,0.005321271385612556,0.005785842537239263,0.006016334887948723,0.005915109918532895,0.005783043923734392,0.005560511580870857,0.005189048128015841,0.004800081030324433,0.004439306396378967,0.0041136778586098035,0.003696884832790552,0.0032781369084097156,0.0028493834127438986,0.0024360506250405882,0.0021537229302009946,0.001980225288885014,0.0018672883534521395,0.0018742394744326299,0.0018980164694568516,0.0018289989279952478,0.001605325283537627,0.001286508179932758,0.0008861772978576255,0.0005160480643720592,2.201511306692736e-05,-0.0005559256255587076,-0.0010989520516558656,-0.001632100059152227,-0.0021397255862814113,-0.0026143964348219768,-0.0031062641293485003,-0.0036225640514105217,-0.004014703922362929,-0.004257687015486436,-0.004537754475666181,-0.004901349764817152,-0.0052537736830221265,-0.005551951758010704,-0.005887860242301915,-0.0062351692981948564,-0.006550426968703756
-0.004101783647536702,-0.003992045890492207,-0.0034311380312447397,-0.0023452757105344815,-0.000894812680116494,0.0002540277046247576,0.001343717909888688,0.0023119209386818704,0.0030381104480647443,0.0035187376201544843,0.0036968977479095123,0.003629255224836026,0.0034220306953345846,0.0032086504322948062,0.0030368271536685863,0.0029113883917159635,0.0027526171020629537,0.002394954296238609,0.0019016550963957737,0.0015073965844079528,0.0013101295248038648,0.0012113220510612587,0.001140466633760875,0.0011131241905373152,0.0011419002029565307,0.0011782993059906608,0.0009806228506295531,0.0008065614321175172,0.0007702441679740208,0.0007626911833573888,0.0006052710792738565,0.0004321427908789187,0.00019837449222390196,-0.0002278845197066701,-0.0005567213328887637,-0.0008400570207148047,-0.0011126962552692452,-0.0013978092864915053,-0.0018145003713258417,-0.002051694224830854,-0.0021660900831746745,-0.0023618140758331595,-0.002491410399462945,-0.0026394715330942185,-0.002835727827895081,-0.0030533229212706837,-0.00323241219434227,-0.00348499254952407,-0.003765584131090299,-0.003984752907209687
-0.005329926727606182,-0.0049587870450252345,-0.003904500575768795,-0.0023015865984041947,-0.00044113191144399763,0.0011247012158639353,0.002336392634472062,0.0032399650636983886,0.003908918740612399,0.004347752297693902,0.004480476047306767,0.0044075663928462155,0.004405337564563669,0.004244915575340543,0.003991133277743295,0.003734832826706126,0.0034703862727635563,0.0030897367015476187,0.0026427703520182705,0.002247504287037452,0.002012393842441039,0.001728931788369375,0.0014648165255747607,0.0014307094234069645,0.0015647374931916558,0.001516109785911796,0.0013178463786323905,0.001341537943578142,0.001346557173298088,0.0012736210285469972,0.0010889134780796821,0.0007308481586014986,0.00027009538244886466,-0.0001585469043817362,-0.0004832026660017444,-0.0008337203260270133,-0.0012780662140453392,-0.0017747778692203914,-0.002214396388295426,-0.0024704652947799147,-0.002714669006588364,-0.0029980400339840643,-0.0032554826712529244,-0.0034917098568058086,-0.00372358217196857,-0.003950838688618167,-0.0041674993637026096,-0.00453521973645913,-0.004894712215334534,-0.005077131307029203
-0.006655373554174466,-0.006462929512543942,-0.005531421475135226,-0.003989098430431555,-0.0021926002091118653,-0.00041123758461194507,0.0012876119804242341,0.0028544413027093217,0.004300094737635576,0.005381883411084115,0.006003351496059077,0.006445694164969533,0.006641533142129116,0.006669532230283662,0.006542913096566096,0.006338579375519175,0.005958818114142267,0.005334119262353571,0.004678723380554884,0.003966826120583439,0.0032664499678426795,0.002636791491252971,0.0020541334987509447,0.0015501070369507456,0.0011586289455859928,0.000921361910114473,0.0008083892361854969,0.0007159473506500351,0.0006925855868510267,0.0007085652461933439,0.0007113010585870902,0.0005790645807518659,0.0003474878026056878,8.23660088441849e-05,-0.0002520962142440813,-0.000655578886692682,-0.0011647629876268446,-0.001666405833246811,-0.002113070375194057,-0.002566261769062963,-0.003069906528074284,-0.003593856295532473,-0.004105045635754429,-0.004545396524032066,-0.004931970480084057,-0.005363802976687982,-0.0058498909332860335,-0.006199758902551075,-0.006516329274912779,-0.00686882809812143
-0.0059474526175334365,-0.005778691148736007,-0.00541076035577094,-0.0047836342978142,-0.0037108473198016103,-0.0023548101800196924,-0.0008558461937017406,0.0006063619710231683,0.0018295952101693121,0.002828863627770125,0.0038401570338977517,0.0046048887371669366,0.005020026019337269,0.00531071308700464,0.005436551986910418,0.005338891309341219,0.00513162903843287,0.004828596018818129,0.00429022528473223,0.0036270308510769865,0.002998527687652151,0.0024192428288932664,0.0018891598294404847,0.0014471782276790318,0.001033834828022721,0.0006562174885438222,0.0004527012911504481,0.00041218831816830406,0.0004502826940042087,0.0004951035194564415,0.0005271230528139519,0.0004930342937461212,0.0004353105439071723,0.00029432532156961307,1.953619210910072e-05,-0.00023864811973601987,-0.00038980218853349054,-0.0006251009625719282,-0.001063956678745793,-0.0014613338150000943,-0.0018284473858590986,-0.002224195681316859,-0.0026182399486570315,-0.0029977125562962795,-0.0033223682226864344,-0.003712618224666387,-0.004168995644944319,-0.0045798484444770785,-0.004972803221548095,-0.005354608122853348
-0.006873629416959969,-0.00675332824841348,-0.00599311597826877,-0.0047280527518645575,-0.0031798633903402616,-0.0014269382827545173,0.00040420113915178165,0.0021282533544383486,0.003434329474602772,0.00447117489667345,0.005277420878339453,0.005836431973399904,0.0062310814651226655,0.0063743708496387125,0.006173395366603282,0.005873030737709959,0.005653746685663186,0.005371282129276015,0.004829235773363971,0.0042728476691515655,0.003664759666821068,0.0030895123261104967,0.0027722332932342956,0.0025726732891191632,0.002377787295014783,0.002218899631625626,0.002091426390922754,0.0020807331666931614,0.002043180570535893,0.001888930125377982,0.0016729304800980856,0.00145816833113015,0.0012036195783413197,0.0007684080340849415,0.0003506252386428643,-9.137975341837265e-05,-0.0006949422000767855,-0.0012945309039627687,-0.0018317491644953365,-0.0023835697202964053,-0.002935310218158762,-0.003360434143765587,-0.0037750994314260764,-0.004385262908834935,-0.00485775249324209,-0.005170589852024529,-0.005436455736386512,-0.00585923525529895,-0.006322833956324025,-0.006745940705957328
-0.010770103451500087,-0.010424726053038924,-0.009087150633198298,-0.006727600497666455,-0.0038119201884310476,-0.0010057370411076048,0.0017743091075370248,0.004187968437441344,0.006013010906076201,0.007268707602236721,0.00804309998746784,0.008583976991190576,0.00875333385725849,0.008598259780239845,0.008176672877042315,0.007603494107228061,0.006819433316850745,0.006006501834021009,0.0053042537487996925,0.00460092170139388,0.0042826553645802495,0.004006848793402508,0.00392748808639645,0.004007598367981266,0.004044774898289468,0.004080473335877394,0.003943556623359408,0.00348227068674614,0.0028817363263795243,0.0023143314582250675,0.0016641644665288695,0.0008978747520724112,4.137867967115541e-05,-0.0007114919707552544,-0.0013942243727328037,-0.0021651155529105923,-0.0029846321672677856,-0.003706160429431603,-0.004261985461391053,-0.00479988016661973,-0.005224759968521226,-0.00570221288718439,-0.006123770285307669,-0.006394497422699963,-0.006836805885393208,-0.007404466560174034,-0.007858831565349089,-0.008272234434603653,-0.00881341812089425,-0.009414558566678818
-0.010078475998680243,-0.009785094042225847,-0.008727503933943923,-0.006974217561574434,-0.004699003009702003,-0.002285730191486085,0.00025406374225997853,0.0027161108982756447,0.004714142306268617,0.006155107229382999,0.007165305675144279,0.007957379881044183,0.008475890475849936,0.008750193488668638,0.008745944527333304,0.00846436638605377,0.008128289159897665,0.0077112470215400675,0.007149222616295397,0.006411336852400124,0.005664211132968611,0.004885394724710964,0.00410698010141671,0.0034329109472676046,0.0029788388763090303,0.0026513824697850332,0.0024124277222266604,0.002275794618768287,0.0020810065196067338,0.0018931925286430776,0.0017028962799831276,0.001185803840686106,0.0005944463524020881,2.0799044867337136e-05,-0.0006231184911955853,-0.0012948128511623145,-0.001987691086211854,-0.0027937540738184963,-0.003560135395452012,-0.004185471025587712,-0.004876889126881512,-0.0055726707364329355,-0.006194623905445609,-0.0067801097941482275,-0.0074105152386564135,-0.007989770197839134,-0.008461007747976843,-0.0089982736798519,-0.009505955743924153,-0.009887505656053324
-0.00908001671993725,-0.0089303206791196,-0.008031687429774196,-0.0064624602114446,-0.004405934489135129,-0.002076289024336057,0.0003252069976909526,0.002557006193204417,0.00443149792316291,0.005893141532301438,0.006997592815380588,0.007792399741436223,0.008262723340133624,0.008422043047262212,0.008471642585338314,0.008415034245652493,0.008146358242052188,0.007662507735320982,0.007083921602293052,0.006341642429052491,0.0053668866573434275,0.004421376246155164,0.003651986842921694,0.002962001720904057,0.002421838920330501,0.0021179644395232793,0.0018430177965643715,0.0015206188556895939,0.0013728320107303151,0.001286430261333746,0.0011146857297874172,0.0008510295988848908,0.0004392723448479137,-8.347570942495705e-05,-0.0006192027428628968,-0.0011716243206901164,-0.001765993538769428,-0.002376401769956868,-0.0030703631797437615,-0.003790764796123956,-0.004437009371143597,-0.005015907166275646,-0.005587042986795583,-0.00618109686261214,-0.006750245649887609,-0.007287173708802991,-0.007825476451742,-0.008323594518735397,-0.00879055800645339,-0.009225828139793394
-0.010169274041364255,-0.009636767883991232,-0.00806870188319949,-0.005701591090841895,-0.0029275742782083674,-0.00016439629897917343,0.002492182954285071,0.004833210662835449,0.006689861128993061,0.007926268560124959,0.008640115672709683,0.009118460277685512,0.009254469497189943,0.009298322535619307,0.009211869647307278,0.008852183206900257,0.00823288713983817,0.007461407649370913,0.006678168965683257,0.005952989462045024,0.005294269356816626,0.0047661822444091066,0.004374156179423893,0.004040071044147116,0.003888480235512351,0.0038040881578501815,0.0036288648165259223,0.003327854109043094,0.0027806522257104336,0.0024040183363500125,0.0018457100877227403,0.0011507244722910267,0.00043900131156702983,-0.0004643476601925312,-0.0015195163915099395,-0.002301007022662422,-0.003067625919728475,-0.003951113932399934,-0.004575683242453374,-0.005228084274170491,-0.005832368075123896,-0.00635199035507103,-0.006762050751945459,-0.007290982414734,-0.007871771525379127,-0.00840647498335284,-0.00888132985616311,-0.009338978319417565,-0.009785340891641186,-0.01013044044299849
-0.008987389103547426,-0.008814689890751915,-0.00791370487541649,-0.006374378766374596,-0.004381354208376887,-0.00212964141795011,0.00013952403543215512,0.0022436844544910847,0.004063730653129611,0.0056055286317212225,0.006891448407848177,0.007837163256687586,0.008472825649583949,0.008806694660646706,0.008861664465644844,0.008774037127601447,0.008535040861194668,0.00815238734332599,0.007573297690933057,0.006832796639273957,0.006002621565969837,0.005111487017536599,0.004203409418748171,0.0033971710655258617,0.0026652960080438735,0.001988994401100195,0.0015509886000367914,0.0012523885451700674,0.0009513027616323439,0.0007536743736821247,0.0006233133644417654,0.0004089233525216803,7.817050590770164e-05,-0.0003111258263302642,-0.0006712320393474648,-0.001126002555079243,-0.001646529120961096,-0.002202081067953074,-0.002758390001376853,-0.0033185533878370577,-0.003937847006720791,-0.0046352435199419565,-0.005359091181136389,-0.006059541119008141,-0.006695516945336034,-0.007261667680061705,-0.007794860175533569,-0.008373252321651026,-0.008914124552237116,-0.009384010850952366
-0.008869535644840412,-0.008319210796416456,-0.0070881956026602536,-0.005277690101854498,-0.0032216364100148736,-0.0010420006318193817,0.0012004376008635316,0.003312413764423391,0.005114062664565435,0.006493778808459455,0.007513613205852903,0.00816584318632158,0.008491905023443418,0.008703896070199658,0.008751563668130303,0.008564306083966137,0.008195686993167927,0.007618878886165602,0.006925193131749105,0.006173205605940131,0.00529987481673231,0.0043556647505829625,0.0034489408094883532,0.002622013960372858,0.0019326840390394185,0.001404285511618659,0.0009167068397387078,0.0005756977639780228,0.00043315192926636416,0.000297153033035388,0.00014125477014052172,-4.9219444887627285e-06,-0.0001074810206884647,-0.00028562552057035355,-0.0005511280276134317,-0.0008244912309944679,-0.0011889541780434726,-0.0016530921867785333,-0.0021775251763395745,-0.0027726704095608176,-0.0033502478473026974,-0.003911521112719813,-0.004531469936994157,-0.005138616775812125,-0.005713239109291865,-0.006254281719915574,-0.006747428334052075,-0.007226259358442731,-0.007618016539387531,-0.00789268088322925
-0.009665100815413545,-0.008828122095532845,-0.006998604587707584,-0.004539596390854192,-0.0019244099449098877,0.0004749005097836564,0.002732170011839753,0.004744792181613219,0.00613886078050012,0.0071000500973811215,0.007828011556851366,0.008167266192617723,0.008376251374946105,0.008508970384653449,0.008286300815296889,0.00785279763662413,0.007181595197505671,0.006433532785921785,0.005637714406064247,0.004984347604337653,0.0044714189341813915,0.003983384689448002,0.003814153163051416,0.0038301094473134536,0.003781834047002257,0.003681664554385545,0.0035412645683190244,0.003278090705267772,0.0028134145641151393,0.0023362923143120974,0.0015146932753261522,0.0007317070733783538,4.748744752371416e-05,-0.0007755843602030706,-0.0015979803380846986,-0.0023628356753581338,-0.0032202543317616547,-0.003954629634473511,-0.004554989301479191,-0.005137690900390175,-0.005737487478577852,-0.006201366901468135,-0.006732738372307052,-0.007244022031489059,-0.007879855104293447,-0.00836925618865764,-0.00881695629314198,-0.00929225814411887,-0.009737386412326883,-0.010330891164582474
-0.008907524219772471,-0.008274861297943022,-0.006822992332034553,-0.004683114638442424,-0.002162093786869671,0.0001300615369664876,0.0021791106124286683,0.004027158543386414,0.005632708337625377,0.006642547868402385,0.00731101977005458,0.007827424596584753,0.008078782653610419,0.008129406541204538,0.00806623970135167,0.007787026351346765,0.007205807193668177,0.006473090009431436,0.005623937832287916,0.00480222661376255,0.004094820275692164,0.003585587354638285,0.003257086612701097,0.003093517213996027,0.003026159058423388,0.002887241660248665,0.0027147595126634227,0.0025741134746743695,0.002315288420506273,0.001826649023259433,0.00143071843769526,0.0009704064779872505,0.0003142763170435967,-0.0004222173685912101,-0.001196006824974213,-0.0018638021650457795,-0.002620635070887547,-0.0034379412820905154,-0.0041618615182444805,-0.0047738538036429645,-0.005328964290638068,-0.005889205735166363,-0.006474566945172984,-0.007042467848524801,-0.007506980860798901,-0.007881259819523197,-0.00831024540190477,-0.008720967621031339,-0.009140693311463215,-0.009631466538032894
-0.011496322660992458,-0.010976928630400591,-0.00901504475928545,-0.005972841803448634,-0.0024420025147876617,0.0009934046059900147,0.003876316537481605,0.006164937509704175,0.007846452911120124,0.008894582369737308,0.009421095625898244,0.009486111111261662,0.009501923190974189,0.009402453298015277,0.009033272909481208,0.008300564472341523,0.007468364826738116,0.006465912492426814,0.005663842341472311,0.005069794313540118,0.004699224982768229,0.004776030992050279,0.004866877778045009,0.004899561452025006,0.0047742847542420535,0.004678419492958519,0.004459110819430999,0.004034369676113322,0.003212782177206676,0.0022761103523421186,0.0014210254912084602,0.0004939818127928809,-0.00048159651782588605,-0.0014216823332643517,-0.0022685918729012447,-0.0029555882588028766,-0.003760870000771544,-0.004443527545421143,-0.0051109429634765835,-0.005710835198528974,-0.006204000768194662,-0.0067671600091029,-0.007229323102769041,-0.007711415744988876,-0.008187254138703186,-0.008655855680485113,-0.009208833539364738,-0.009886588061058847,-0.010440491444887144,-0.010948152017992291
-0.00904508715803366,-0.008726762694919968,-0.007494740323224617,-0.005542905815993959,-0.003193374715797743,-0.0007137871963223891,0.0016940145973510972,0.0037335801158078995,0.005224121756904787,0.00640725294820111,0.007209647019065929,0.007753092736615851,0.008000486259540314,0.007962097747811106,0.00784599723007575,0.007504495504937304,0.006945982212448834,0.006224092283853416,0.005425253657851254,0.004596357369257547,0.003943193877341494,0.0034615683715425575,0.0029652636913206493,0.0025333629115530405,0.002344666073308071,0.0023754860500765224,0.002348297784889154,0.0021382458879170094,0.0019033900957911678,0.0016945134544034375,0.001291864052535451,0.0007649481318229767,0.00027845070503095757,-0.00028905129800415257,-0.0009930845127942179,-0.0017479568917254916,-0.0023614093146962787,-0.0030075380707087393,-0.0035844964678792574,-0.004131307492292027,-0.004613131111195087,-0.005055621861461253,-0.005638994380332416,-0.006111136181360165,-0.0065230923129888955,-0.007000469522674922,-0.007362346952082027,-0.007785733735290059,-0.008220400055082486,-0.008502753455383998
-0.010016300478828469,-0.009863230828572038,-0.008854504503151457,-0.006960199288370321,-0.004429955302236261,-0.0017437152379746379,0.0009047663368693724,0.0033265622042259187,0.005335791963758212,0.006772458650708746,0.007656201335973267,0.008355349682482218,0.008851741753760042,0.008993097841069308,0.008883431634599263,0.008587803044339004,0.008182937869402952,0.007713858796891383,0.007115479498820877,0.006336967644005519,0.005458334974482743,0.004760767765141568,0.0042497405739750724,0.0038915415142848817,0.0036714515408096684,0.0035030785623722926,0.003337042463132994,0.003026903129735972,0.0027501445767468572,0.002489114457067165,0.0021087329183100403,0.0014952798999303704,0.0008382170148061067,0.00019743673998759648,-0.0005062745712413818,-0.0014349505073330037,-0.0024069793838742636,-0.0032215938167226904,-0.003858460550676837,-0.004467476647605711,-0.0050573652629244525,-0.005598225145581123,-0.006239924344724945,-0.006798208711610869,-0.007193428432126568,-0.007647997258351613,-0.008188782510266192,-0.008667784100815173,-0.009082704393551666,-0.009596284179381409
-0.00820759679432044,-0.007903199127073235,-0.007159270997329407,-0.005911158050482584,-0.0040316873365204425,-0.0019461319441878787,0.00010491758707765049,0.002008691119658075,0.0036550918066958586,0.004974599003311169,0.005930490335475961,0.006596001143263492,0.0071241326925757156,0.007524160742215786,0.007677107430510479,0.007578448669282356,0.00731033139648405,0.0068927253886586146,0.006307799898991511,0.005561147152104557,0.004715929711662134,0.0038976620573976176,0.003137528068696706,0.002605836296514411,0.0022343640923383323,0.00176051719275201,0.00137932025986818,0.0012838420721304417,0.0011921997502692338,0.0010025356505335577,0.0007831989241567541,0.0006276438816604601,0.00037841429762938916,-1.7719586215693678e-05,-0.00047874095414972176,-0.0008624175120888185,-0.0013307863664414384,-0.0019777841357392885,-0.002544028049588294,-0.0030655955632484452,-0.003535667600418382,-0.00407392919515782,-0.004638924303390477,-0.005174789514154502,-0.0057988288575079195,-0.006328673135729136,-0.006690151249325337,-0.007016796732912731,-0.007375133313493902,-0.007789408340566944
-0.009082998402988398,-0.008792994159011785,-0.0075969153847290135,-0.005670776609182134,-0.003337895525554681,-0.001069672772043338,0.0010927945104612325,0.0030370408353887737,0.00464820004981302,0.005882324209814231,0.006865453502550871,0.007519972012300686,0.007843817829964104,0.008049099170982319,0.008183545583667512,0.00810051587395526,0.00774139521857397,0.007217102032678308,0.006506005332888318,0.0057255899602571695,0.004980593249448181,0.004332803037359351,0.0038302075605666295,0.003545193387724318,0.0034027458524207395,0.0032054686756173073,0.0030389164776939382,0.0028832502465389984,0.002708296527157238,0.0024752678324317656,0.0020850716572063787,0.0015717261024467185,0.000956509137514838,0.00026037588120952156,-0.00040353749072104207,-0.0011752524336014745,-0.002022379036900229,-0.0027662320472908696,-0.0032685889094079736,-0.003848515023969443,-0.004497027631221662,-0.0050351490077695255,-0.00549247368532647,-0.005897672804006708,-0.006307601150043536,-0.006754214154814715,-0.0071588289649100936,-0.007617619386875314,-0.008118618473339424,-0.008612724920935951
-0.008957519867223103,-0.008776840602434876,-0.00798623852758757,-0.006596900753255885,-0.00465033056461871,-0.0024640461040844612,-0.0002216735192363825,0.0018720350319607133,0.0035658930213504888,0.0050258892690536,0.006339110924825798,0.007232521039954672,0.0077441191526648025,0.008094823411756479,0.008259638804146572,0.008340106160390128,0.008362062861970419,0.008071961370848165,0.007513561232731164,0.006856982868888851,0.006099454745246544,0.005255520790613422,0.0044613081408055675,0.003839830419334279,0.003289827133651871,0.002721393483629939,0.002366374366639136,0.0022783125274291787,0.002139593624492046,0.0018991235013375704,0.0016130983265827418,0.0013104125535216091,0.0009761962377457822,0.000471980276040354,-0.00024941258618083344,-0.0009035588078308556,-0.00150958774190224,-0.0021351992620382665,-0.0027968441342360118,-0.003523692908812043,-0.004182984840872397,-0.004766076294795741,-0.0053773264444484,-0.005949475711111561,-0.00653451039786338,-0.007074801629770812,-0.007578829434678621,-0.008009153642636576,-0.00848882683039226,-0.009051153913895528
-0.007498880072386339,-0.0074878907169375584,-0.006703088768904046,-0.0052802606183887275,-0.0034494235638174234,-0.0014133946411484357,0.0006325511088820793,0.002528956376382405,0.004055006751063836,0.005263732096164493,0.006301417843925839,0.007037229793880213,0.007453354454297752,0.00759068227324174,0.007653267853576524,0.007598537805768179,0.007359542860892108,0.006968996725344699,0.006421561970116161,0.005709985812010227,0.004894796332922087,0.004024443414120327,0.0031755835301651904,0.0025394037662079256,0.0021080037181823814,0.001809909285288392,0.0016324126252759306,0.0014479737735594298,0.0011612298029291786,0.0009286317056018303,0.0008754123552872195,0.000617597849952715,0.00014019780201489856,-0.00030154357889626327,-0.000644919120069574,-0.0010688484685651147,-0.0015560450182097174,-0.0020432459096180683,-0.0027081563591575385,-0.0034008327509518132,-0.003943732583831242,-0.004389179937353542,-0.00482025823750432,-0.005309839022965123,-0.0058398258752345444,-0.006384902585795278,-0.0068935480388557634,-0.007314214446194053,-0.0076836520051082975,-0.00801900048942787
-0.005326059606973487,-0.004949247068391432,-0.004263328514592003,-0.003292828587899927,-0.002100104031171967,-0.0008039585524693446,0.0004887996980040689,0.001640425475100488,0.0025707931602442138,0.0033133454169436342,0.003965325001965966,0.004412162875070417,0.004646350051007393,0.0047210913078867605,0.004730498826879504,0.0047098340316462164,0.004661562011422377,0.004465969119721948,0.004089561281440857,0.003560051438955998,0.003146147690311625,0.0027906384136592854,0.0023706374551998232,0.001973101633577834,0.0016612591010273312,0.0014840144525736416,0.001436268900350098,0.0013919220806815932,0.001258516165952129,0.0011717797382120633,0.0010663431141931803,0.000895918850422498,0.0007797947475020892,0.0005638982219571553,0.00017452631931933127,-0.00016229920296034707,-0.0005048354513286859,-0.0008816711085175276,-0.001189152513641312,-0.001552221302102407,-0.0019998067265570834,-0.0023540784481895956,-0.0027273732184656383,-0.003134915378501746,-0.003416464086889559,-0.0037773442468046615,-0.004244403287146139,-0.00459818281595217,-0.004867343286748647,-0.005070290926695838
-0.007564372162584817,-0.007006714312600883,-0.005875305440519998,-0.004285534171907777,-0.002482352302578601,-0.0005046392718748029,0.0013951689780857357,0.002946781983968965,0.004327297892308306,0.005419839915895407,0.006151244656103509,0.006694003417205829,0.007000961963433111,0.0070331164154071694,0.006926723381798619,0.006845754927331244,0.006691205253048869,0.006262456277225361,0.005615843653898285,0.0048488131570215654,0.004068303375743537,0.0033541067187388644,0.0026975576980475843,0.0022449526912687113,0.0018879675801148263,0.001491548752058332,0.0012827831913741368,0.001234587854463549,0.0011834042187675458,0.001104725376277157,0.0008760835971194298,0.0005498708534272749,0.00018222237924192698,-0.0002781044628589609,-0.0007592138995733528,-0.0012211115395541618,-0.0016872464343912481,-0.0021788826833529177,-0.0026829699395461474,-0.0032544102119729202,-0.0038355150278002663,-0.0043973490980691605,-0.004953737194949927,-0.0055070919215838565,-0.005952101345918207,-0.006383822822185431,-0.0068350211465583,-0.007184403421843687,-0.00757376461216781,-0.008074949043084282
-0.008721449656985084,-0.008694755997662958,-0.00824739559411809,-0.006927765301204003,-0.004686595658284673,-0.0023733499319824633,-9.412126775892746e-06,0.0021694476637835296,0.004016847368903686,0.005427638844008606,0.006354971917064714,0.007098180139526677,0.00759517163124915,0.0077442397560869,0.0077213015371717635,0.007544899861203063,0.00730522951619561,0.0068335777640716935,0.006241037346828607,0.005520078210940615,0.004875223860453975,0.004314592979514576,0.0037382226516953143,0.0034491943612143597,0.003329685249884067,0.003145054639319873,0.0029853372351201883,0.0029195603968191156,0.002875597491819257,0.002607196034769061,0.0021521510779812557,0.0016073213252692949,0.0011183726808543205,0.0006557975960982341,9.567868402018545e-05,-0.0006707398036767316,-0.0015870810215377832,-0.00240700235592627,-0.0031401982242319918,-0.0036878694220220014,-0.004139133099599715,-0.004614343863562945,-0.005097860973600989,-0.00562520799645631,-0.006162788654785249,-0.006575829243976113,-0.007008851470747838,-0.007436053418858273,-0.007845528138486102,-0.00825304403583335
-0.00821453358469916,-0.008037719219118989,-0.0070438745997595704,-0.005354717727106705,-0.00324847949263171,-0.0010508294669238478,0.0010403349330214006,0.002833374304836005,0.004449766431474362,0.005798834631988351,0.0067503042298721495,0.007382351816919537,0.0077103961469447485,0.0077702446769132225,0.007792115603824468,0.007717839449860297,0.007537818369408418,0.007083197944351306,0.006546321500925088,0.00604618503589418,0.005167138456320082,0.004217167270811985,0.0034618857080006516,0.002848537153783229,0.0023247569883930873,0.0019340147189682126,0.0016360089266006228,0.0014113688952056697,0.0013353803525834142,0.0012106357452314198,0.0010162946734138395,0.000902732995248397,0.000633699339823317,0.00014603300210839338,-0.0004201277639358684,-0.0009559181341357165,-0.0014688457412235624,-0.001954706723249238,-0.002502634848451238,-0.0031368924283144625,-0.0037917895246168086,-0.004313407374779272,-0.004779014526097473,-0.005294359491647168,-0.005921814876857634,-0.006563986318741708,-0.0071531946832475235,-0.007614719062140429,-0.008006167702474023,-0.008361329568594963
-0.009003812790973325,-0.008706718306316866,-0.007593699071596295,-0.005734016631737273,-0.0033561743302885465,-0.0009408408907141311,0.001289733576661449,0.0032753757167588897,0.004969523590910902,0.0061995745405949935,0.007004393041642517,0.007581122440859739,0.007870610112573069,0.007934502797941983,0.00789335552850801,0.0076984897647592535,0.007411698598321118,0.0068444547990730905,0.00614847591111221,0.005456384637292633,0.004752386614190113,0.003986679729996398,0.0034658904123529176,0.0031333656287952866,0.002855386318187997,0.002684280416392925,0.002607604980566646,0.0025272854503055825,0.0024788750972934287,0.002247418039094053,0.00191699974998079,0.0014674325714045958,0.000864638487041937,0.00022003926300598163,-0.0004554660357673732,-0.0011850638786891324,-0.0018598021960340547,-0.0025029599517339086,-0.00327860632709106,-0.003919195505200233,-0.0044390269140548045,-0.00500292369731925,-0.005529994651751215,-0.005908580231325538,-0.006341359493759393,-0.006869357216413598,-0.0071505732353675695,-0.007604034564821884,-0.008143341553239642,-0.00853270922928168
-0.008458733791447924,-0.008077579546897397,-0.006960291750104097,-0.005222954526235643,-0.0031405785767790622,-0.0010479829445825938,0.0008837544229129571,0.0026918515187408726,0.00423173106321808,0.005414428686924011,0.006402963992774891,0.007127840563026256,0.007514201335014018,0.007617059746426168,0.007618355114793009,0.007484152069142595,0.0071410694767415645,0.006592275092718394,0.005966971087509242,0.00533225020027509,0.004530456187689905,0.00359710145688942,0.002793556415150198,0.001994478147188907,0.0013122332570527394,0.0008772518621566864,0.0006798866578948878,0.0005727723748317666,0.00042915872301600705,0.00028980993337074964,0.0001318139036699732,-1.024739512200094e-05,-0.0001229901634615841,-0.00032391456103784787,-0.0007056551393622691,-0.0012537361205924038,-0.0017741852362400203,-0.0021897829488008854,-0.0026939316411404095,-0.0033494900207398396,-0.0040132590937969215,-0.004530262818834044,-0.0051065785800727135,-0.0057127000758955965,-0.006227356940952606,-0.0067648539718498865,-0.007297911033704509,-0.007754393501740193,-0.008152571167835328,-0.008497605132714935
-0.008748366682192223,-0.00877723727721825,-0.008159223550427945,-0.0068719090653610836,-0.004901155631685792,-0.0026301832607667974,-0.00028334011627323885,0.00199119452995878,0.003866516500258978,0.0053639748497336485,0.006620931683927907,0.007592852694803611,0.008158361638955149,0.00830963546795427,0.008367040813652582,0.00831608490024548,0.008090897820553639,0.007739168777380974,0.00726468409838724,0.006582654609554326,0.005783322610938392,0.004958294389778352,0.004099491824872252,0.0032530959481131454,0.0025080928560607466,0.002007084263548328,0.0016841171551904954,0.0013978000557457945,0.0011786700034629798,0.0010894422976167161,0.0010247260311955937,0.0008368557353671235,0.0005512868381122669,0.00021977441910490651,-0.00025960979861209556,-0.0007386119354777403,-0.0012287293885617776,-0.001807434454684414,-0.002432633989376057,-0.0030134723591776448,-0.003561394919709141,-0.004292614459272353,-0.004960147334470839,-0.005464844403948083,-0.00607391156774338,-0.006667865963301578,-0.007151894582757354,-0.0075247234645196585,-0.007967580713708981,-0.008581440812185395
-0.007427747741025219,-0.007202238763494487,-0.006443617554797807,-0.0051599540571893796,-0.0033862239082673327,-0.0014772555222354743,0.0003288515002750413,0.0020448560851597207,0.0036312020319331827,0.004993911957760122,0.006056487888141608,0.006821232295042964,0.007314641116607673,0.007559579939408546,0.007591381728343047,0.007454484305927666,0.007173955595374134,0.006765323378161462,0.0062430926533739665,0.005536134039164524,0.004661320790048441,0.003820511298153588,0.0030794640817393693,0.0023380191380994214,0.0016631930707441964,0.0011568265914776977,0.0007432669146469704,0.0005035364356917451,0.00032139372276245975,0.00012424787600133965,-8.138706529102458e-06,-2.6724286365259536e-05,-8.044479049348847e-05,-0.00039969553598250283,-0.0007089698706853067,-0.0009555568261996664,-0.0013257724031647666,-0.0017165681073489105,-0.0020928163986456815,-0.002567294449077614,-0.003112232344211714,-0.0036958320193385004,-0.004189693736845888,-0.004688556405153248,-0.005315972792359892,-0.0058698310932630594,-0.0063017530043860456,-0.0066527751450808845,-0.007008050059715767,-0.007385398652028304
-0.00850065837003645,-0.008365238009844822,-0.007335654645263615,-0.005539536045377961,-0.0032383095358132887,-0.0008872723079546199,0.001353253593609305,0.0033278092556198236,0.004775974014029473,0.00601689043517802,0.007042056766597624,0.007679437813214291,0.007987146455646426,0.008104482708284521,0.008086828980743805,0.007841681356959507,0.007436917098378444,0.006888299794155384,0.006195509777687207,0.00544234097868164,0.004679084308664233,0.003963433895090225,0.0033940992348622774,0.003037638545963705,0.002809771788520859,0.0025641484217910956,0.0023407777932521376,0.0021614349057661577,0.002026957897596401,0.0019014673916127206,0.0016468338053406964,0.0012758090296852305,0.0008643902453974821,0.00034652896219823686,-0.00027628603020717676,-0.0009637935358296932,-0.0016245589995421091,-0.002254368823089425,-0.00285277194002217,-0.003421989097457768,-0.00398394822986366,-0.004528598095651648,-0.005047177211946249,-0.005543461605037705,-0.006046903033565022,-0.006518530577766598,-0.006912754711059377,-0.0073829910577677795,-0.007773338763311008,-0.007958983721862194
-0.009059008710396808,-0.008790493786624099,-0.007883956670868237,-0.006315028125312085,-0.004103731520214317,-0.0017877965048609422,0.0004396959811423431,0.0024908604364547475,0.004278058083475248,0.0056433858421881585,0.006688540341508134,0.007468754556482559,0.008015290351966874,0.008272122667667315,0.008258865018143387,0.008051101410260289,0.007748995749540602,0.007318789075252962,0.006681758420680117,0.005961305948205027,0.005095738292669192,0.0041449933627561554,0.0034204023787294505,0.002700297463573944,0.0019561354648764484,0.0014706944912654509,0.001194143232063133,0.0010273146844579596,0.0009113720291840154,0.0007968061299113242,0.0006793164047959938,0.0004897504500136484,0.00018515979872352502,-0.00028166867064106314,-0.0007629620389684203,-0.0011862984954777419,-0.0017217410895999034,-0.0022916311617022468,-0.0028066803417888223,-0.003396586075818219,-0.004117664767951912,-0.004722505331193914,-0.005221343095934662,-0.005804483387178849,-0.006505149309870662,-0.007117232871203375,-0.00756464761425164,-0.008146449473600503,-0.008670742763969765,-0.008981996958980557
-0.008308860769773368,-0.007967739494447719,-0.006863870188405172,-0.005126653922568067,-0.0030274429766633344,-0.0006948942265144857,0.001520475142199276,0.0033826918013592604,0.004912385844468134,0.006140823101068972,0.007131638453281774,0.007809270738522845,0.008145757030129635,0.008256661864411756,0.008190920394074656,0.008043018642886243,0.007704303108851734,0.007202629940229611,0.006588297345040734,0.005820232357042779,0.004907931715377317,0.003958337066238763,0.0032420595409232587,0.002593170562704478,0.001984784585510311,0.0016176520165521774,0.0014012446406821378,0.0012808481695892647,0.0011975372119463626,0.0010128347374783683,0.0008818889154433923,0.0007050266367772427,0.00031580533957090335,-0.0001819437595827814,-0.0006956631825245825,-0.0011876968901750006,-0.0018246938702161054,-0.0024661197548245337,-0.0029820207639595815,-0.0035569242991331175,-0.00419248499922534,-0.004758762977576778,-0.005355871798831553,-0.0060825053144716885,-0.006756809168948124,-0.007220424625400814,-0.007623132666443287,-0.008137047892161258,-0.008614053762680205,-0.008989878919334858
-0.009346937632896565,-0.008963576814077378,-0.00781767728157691,-0.005955964251063837,-0.0035396536929638927,-0.0010708648102668587,0.0011564574231056192,0.003030919343296235,0.004597435488088299,0.005887298974709352,0.006835314882452422,0.007425062918337144,0.007751547746792231,0.007870301775342954,0.007760179846877074,0.007516196162674023,0.007160959930632836,0.006660940605217208,0.005995426939623746,0.005253337903410307,0.004406380181923429,0.003621229228532398,0.0029925869711803325,0.002543681167557247,0.0021497377492572206,0.0019887471806462127,0.0019330566036610698,0.001802472003511883,0.0017594607472305832,0.001560834313998906,0.0012481683881716468,0.0009087028619825144,0.00041407993451040865,-0.0001362047231613559,-0.0006337988952594482,-0.0011564126786154927,-0.0017776850395295027,-0.00245281583635371,-0.003090396432148667,-0.0036431620212013086,-0.0041069694948671735,-0.004587162757836218,-0.005131118443721277,-0.005774859622154066,-0.006301355606980352,-0.006680849549612032,-0.00705394810184974,-0.007399828025321282,-0.007772125930822117,-0.008195337768124769
-0.00895235576332041,-0.00881348973076879,-0.007919825947942057,-0.006236367825696648,-0.00386985107224027,-0.0014412425966459355,0.0008686177396034223,0.002963322424960492,0.004749000938650555,0.006188072392047335,0.007271416927621914,0.008064123583300904,0.008510720813975588,0.008554562532044238,0.00844829976001027,0.008368892805668389,0.008166100869011338,0.007772242121783984,0.007113946322105737,0.006298447408227691,0.005430712717993525,0.004564430796400339,0.003974890635501372,0.003505590068279067,0.0029887461902294767,0.002589470937834202,0.0023958529371952827,0.0023474225761883987,0.002182895422059437,0.001953580849393626,0.0017395663034006914,0.0013970132147872734,0.0009932767010727246,0.000408061387241925,-0.0003476877409984964,-0.001034316755916297,-0.0016757824284425705,-0.002338013233625982,-0.00300087219846146,-0.00371776792284424,-0.004354804802452551,-0.00495592868000325,-0.005613244004317739,-0.006101861175685161,-0.006604819627806061,-0.007082154244771918,-0.007425501708120873,-0.007916526504172197,-0.00842990303020981,-0.00884975238695861
-0.008640449867266767,-0.008591755650325814,-0.007761413863861261,-0.006158632392400746,-0.003906343142475121,-0.0015737966221340655,0.0006251665306831474,0.002588466131372395,0.004355975220690792,0.0058325438347025405,0.006869806797324171,0.007572876508395943,0.008022590374862932,0.008232024997173144,0.008307855932968016,0.008223654694748332,0.007955646372817001,0.007453422622343008,0.00678904606443138,0.006080216613412305,0.005251592059802202,0.004455222284312325,0.003784802299305159,0.0031737476328606486,0.0026655389383396094,0.0024481745439760222,0.002243224907488234,0.0019255131137037662,0.001770495969331168,0.0016086099233598473,0.0013906976207991079,0.0011295564705376222,0.0007863580832987079,0.0002959601593403876,-0.00034510572434725173,-0.0010181469524895809,-0.0016856005954267901,-0.002367400876992009,-0.0029417871242386037,-0.0035010401648966462,-0.004238359025175418,-0.004946662614995362,-0.0055689760156252465,-0.006111559130274106,-0.006584178075649558,-0.007055982739194344,-0.007601244739046976,-0.008136438919285564,-0.008559655701085928,-0.008821725057849401
-0.007731676221355804,-0.007145638043425249,-0.005751974771689063,-0.0037469931821547033,-0.0015874593683873365,0.0004964851450544764,0.0024132187479597696,0.0041208916555968275,0.0054583196281979135,0.006456645389943462,0.007258727296068851,0.007747429197035577,0.00791885811369037,0.00784104911352183,0.0076811700086831455,0.00742626897369314,0.0069955525714509095,0.006419114146635672,0.005692798047579439,0.004824924932975978,0.003997646405423929,0.003248674367694004,0.0025786035866974463,0.001996788131520844,0.0015817039310756487,0.0013871101975233176,0.001246821143987496,0.001114225505710836,0.0009687413575139542,0.000795530677006722,0.0005521773810888209,0.00021432632138958582,-0.00017341385411752177,-0.0005975216290350462,-0.001050741468760418,-0.0015273539731042165,-0.0020703796510248623,-0.002674337933627306,-0.0032074374332300842,-0.0037227768202136515,-0.004271103715561671,-0.004887385097629702,-0.005469964235202702,-0.005984404594333881,-0.006497983295221462,-0.006943341614570855,-0.00733626475258391,-0.007812391789947935,-0.008205473197856219,-0.008438347690109916
-0.0080304204574951,-0.007807911109848149,-0.006983212158499919,-0.005540802329046628,-0.003498690234689841,-0.001382931382245478,0.000663676283159042,0.002555928200825528,0.0041095956396821585,0.005391438509643283,0.006376998969905364,0.006886875657111832,0.007170184959264072,0.007365769313182816,0.007379031424683394,0.007224813907070943,0.00691818000929235,0.006336841236487732,0.005592892756547556,0.004837874086106697,0.004040122953494578,0.0032665373773904517,0.0026047488814841604,0.0020447816080289196,0.0016860948308099295,0.0013906645111138867,0.001227657839586429,0.0011993428345728305,0.0010589704368034862,0.0007996904285429031,0.0005372638634211194,0.00026856347265459936,-5.0930889520705034e-05,-0.0003738158084091866,-0.0007355568114609144,-0.001231596891021376,-0.0017737780617633077,-0.0023188633232821125,-0.002857372700366766,-0.003418206607046982,-0.003926368830375479,-0.004460568796510856,-0.004988395294674753,-0.005441440322901399,-0.0058811774058773695,-0.006304049296747287,-0.006691528623063247,-0.007131957552427862,-0.007588144400516508,-0.008042219060915439
-0.008951072483233147,-0.008933796451965563,-0.008092315527914876,-0.006423869726390563,-0.004126627339981775,-0.0016776292666950228,0.0008648943721700126,0.00315046557533844,0.004973038193966977,0.0064034769343719175,0.007342993757780096,0.007907238952676419,0.008306653818445617,0.008473306082421181,0.008501719471134195,0.008396585839285752,0.008096583513121584,0.007590458872647423,0.006920205339383678,0.006015761101043928,0.005155383209167247,0.004532911502218209,0.0038323650316587315,0.0033022344706890227,0.002975740373224017,0.0026921266475853326,0.002567750483334636,0.0024520880510764146,0.0022877019412131925,0.002091112268656978,0.001754577508817335,0.0012644462356217565,0.000715957095225218,0.00023854789106743293,-0.0005436444231167797,-0.0013833407510456816,-0.002104052737220669,-0.0027432171624769365,-0.003374726660580981,-0.0040866521196504125,-0.004759032529767253,-0.0053363622413906235,-0.005773927078000231,-0.006353476303024311,-0.006907241521630567,-0.007357542150019316,-0.007775442296430422,-0.008164272343146447,-0.008552694192552335,-0.008948147593146764
-0.007976663352582306,-0.0076503032512872035,-0.006545350026133302,-0.004797127318031991,-0.0027559622539015827,-0.0006349815711848161,0.0014384385781862404,0.0033296607531609094,0.004915562920287393,0.00617638222019844,0.007105560303399959,0.007699766087790124,0.008046513249420637,0.008197353003364351,0.008075924278474728,0.007797099522865565,0.0074337581887580695,0.006939724022497358,0.006313269910995043,0.005530899650217306,0.004602954473873662,0.003673553703309191,0.0028814761076416465,0.00221375323510402,0.0017073497781358018,0.0013331150017887267,0.0010653800758742454,0.0009435891326182472,0.0008267294287764504,0.0006747706962732655,0.0004959684523901491,0.0002902744634632658,4.058332051015347e-06,-0.0003869221047497456,-0.0007995251587921123,-0.001237906811058433,-0.001803331550864886,-0.0023307576281342557,-0.0027690500231164527,-0.003389724665114254,-0.004093361291615529,-0.00477064656005962,-0.005353192423454393,-0.005818361219980788,-0.0063680333257912,-0.006851016518174379,-0.007262323618974453,-0.007792590777271093,-0.008308272440305735,-0.008758018208904574
-0.008480988279877488,-0.007861601579346313,-0.006285652630057851,-0.004005472156391443,-0.001401474336387571,0.0010133130289122108,0.0031663407157227637,0.0049590982749777995,0.006246853367251586,0.006958169094592634,0.0075055451848869865,0.007907219438616015,0.007901279273845478,0.007699448049134781,0.007351760766659636,0.006831933423079593,0.00604143650736556,0.00521821020314827,0.004305392323336669,0.003539364736808266,0.002935334560906934,0.0024369639397400283,0.0021468172609077716,0.002055095675476448,0.001894549529141499,0.0017392518798198288,0.0016887264665446373,0.0016732037393953538,0.0014960710560727526,0.001120439147531983,0.0007558569540953616,0.0002491182093986592,-0.00023160234243567614,-0.000683560980542295,-0.0012736632232362064,-0.0019951933901276604,-0.0026092077777163654,-0.003157790883467713,-0.003826812116068533,-0.0042684604795097895,-0.004673336203505699,-0.00513806799279494,-0.0056207191202391,-0.006051098262389231,-0.006460683013827266,-0.006927348616268544,-0.007345237434234327,-0.007733402354974489,-0.008047622448989933,-0.008240554589538426
-0.010625908963614927,-0.010330289227878594,-0.008975667625006602,-0.006450812606950125,-0.0034715371613625746,-0.000610561030330296,0.002079864330552549,0.004172268008371506,0.005722966247106672,0.006781915029562633,0.007554959034980513,0.007888474871100223,0.008063780907526562,0.008019037073558704,0.00769924908033391,0.0073229859747906394,0.0067092981273547524,0.00594575698566633,0.005107959898605137,0.004374188937541117,0.004158544401968708,0.004033849187825688,0.00390543417091896,0.003982838842325106,0.004152421835807085,0.0041307091071365026,0.004124500716010141,0.0037557548147882968,0.0032754408815791575,0.002651542930859373,0.00192534310636859,0.0013004798914211524,0.00039252387220389384,-0.00043219029210684874,-0.0011880979799559215,-0.001838204353108821,-0.00235754386941583,-0.0030396864666049493,-0.0038143899108129377,-0.004420083161497718,-0.0047818264251923495,-0.005314241739906843,-0.005740422865967377,-0.006119384534174606,-0.006577858513645127,-0.007023287443855367,-0.007459415649640865,-0.007965937669682517,-0.008477047352795405,-0.008986074499849117
-0.008834598831632848,-0.008483275578329832,-0.007616434021339424,-0.006203504510355419,-0.0041533629956543965,-0.0019406050825868716,0.000133392640891025,0.0020741156630923784,0.0038191088829647724,0.005292484436962362,0.006474466261549929,0.0073439648971970715,0.007971643091313785,0.008334515626482086,0.008427832211249455,0.008502980450055597,0.008470906580059268,0.008218927993639553,0.007849044177975075,0.007311086529108116,0.006562186913677617,0.005687981091324121,0.004811854283689096,0.004005114320890472,0.0032905068776661137,0.002574044214073241,0.0018816587644560714,0.001407992561386889,0.0011403435113575525,0.0008946743074953281,0.0005940389453807098,0.00035210785156788814,6.460364267077205e-05,-0.0002774434799825233,-0.0004662774389495982,-0.0006643465194363918,-0.0011194830739989412,-0.0015726941032355934,-0.002016492041288032,-0.0026912736364195153,-0.0033925236125089565,-0.003968227198523265,-0.004528919572851481,-0.005115305052622768,-0.00568180441276865,-0.0062427561376423866,-0.006805216462357132,-0.007320238599477972,-0.007812501503561704,-0.008289679489441069
-0.006885161541959494,-0.006863486065725867,-0.006127605972652466,-0.004781952747759284,-0.0030672526269091283,-0.0012536187879617516,0.00040516528148315143,0.0017633816446426026,0.0030356127269255753,0.004127116811438659,0.00488400098706614,0.005466100061645579,0.005913804606163324,0.0061383450203428445,0.0060925517198588686,0.006024978617642657,0.0058720461670286606,0.005513309520901979,0.0050561892964389845,0.004527012417852486,0.0038766514844355447,0.003146046957738124,0.002488905164179988,0.001932082874054997,0.0013792186772333913,0.0009706544021024449,0.0007231896002247041,0.0006243371990038557,0.0005305219574593524,0.0004912435124456674,0.0004903092279903939,0.0002724965779264155,-1.1376936576593984e-05,-0.0002677757731808363,-0.000597094511895467,-0.0009851617074010512,-0.0014174616476705943,-0.001810105279736983,-0.002188160583543157,-0.0026365500395354718,-0.003160184683899445,-0.0034710989647598997,-0.0037666513980641678,-0.004242159424455249,-0.004824473555496261,-0.005305596567129431,-0.00565333018380061,-0.006130027449828703,-0.006604319971021808,-0.007004831470563717
-0.007211151550308272,-0.006832476247856673,-0.005775407821408968,-0.0041329600941910835,-0.0021842820177498026,-0.00034408162292597034,0.001286422592184157,0.0027076784582853804,0.003967444529681049,0.0050135625179631264,0.005755972114410363,0.0062804558184966375,0.00642338657278705,0.006458782219567751,0.006493019543197204,0.006166478187977646,0.005733062955418096,0.005275580048520516,0.004743205902966563,0.004003276041911197,0.003196037579485538,0.002497862049180493,0.0018108102176543363,0.0012574469252594127,0.000903603193398774,0.0007363831969485619,0.0004998005170212486,0.0003532295601315432,0.0004333599599539205,0.0005220838777812873,0.0004734290052487957,0.0003000544662305726,1.584281326998007e-05,-0.00032977727456881913,-0.0007110639297469331,-0.0011033518587122515,-0.0014275561310376538,-0.001830185754231064,-0.00240012540569573,-0.002883466186245418,-0.0033450900174373764,-0.003819035651049331,-0.004240528179673136,-0.004635473294043261,-0.005014613687603497,-0.0054686372898284825,-0.0059887147902790965,-0.006496264467501023,-0.006912001415333984,-0.00721069488594687
-0.008904142311647475,-0.00866811712932624,-0.007488413516772346,-0.005434085764242735,-0.002927317606854378,-0.0004951777327488995,0.0016823512768750636,0.003495440686971248,0.004956155804109537,0.005917018972117969,0.006484759110788597,0.0068692354073354115,0.007011511343836927,0.006948449327927665,0.006776422261471441,0.006411570424992729,0.00569198400713342,0.004973951051591728,0.004151773838043379,0.0033670829277345814,0.0027226522241628574,0.0021785049841545373,0.0017423195409941882,0.0014877663041015575,0.0014510053982263143,0.0015063153461517319,0.001618661021216394,0.001702321323650152,0.0015926602558230553,0.0014118816460252767,0.0010356648005127355,0.0005742445754722337,0.00018577651829014379,-0.0003649369441094296,-0.0008890244338594963,-0.0014566359074051972,-0.0020833178381488905,-0.0026227953575485843,-0.003159403136471375,-0.0037425268942334923,-0.004252302041597281,-0.004588374737767886,-0.0049080353996853055,-0.005430480200906461,-0.005842929293881404,-0.006345021660429144,-0.006819212789375029,-0.0072568157552030665,-0.007604140030973502,-0.007836080438571908
-0.008185563537733346,-0.007952307317427099,-0.006915983821330336,-0.005115317421850341,-0.002708126973287349,-0.0002878907574729953,0.0019291306531236836,0.0038952040421058394,0.005398990492493568,0.006595769919931603,0.007408510452767656,0.007719754898373781,0.0078290500462566,0.0077439053122550765,0.007492952986815379,0.007115025490136916,0.006612558402742025,0.005884543368200561,0.00492357696733911,0.004003984428259952,0.0032430735992618615,0.00254853165071367,0.0020123437606928193,0.0017029530160022359,0.0014687364785592055,0.0013951792579154228,0.0013104492796952062,0.0012065915840738547,0.0010448912145818749,0.0009227365841933976,0.0007743103247455645,0.000418645229947074,-1.4395789626167214e-05,-0.0006015257080298149,-0.0012258439873407802,-0.0017274530339245707,-0.002215843627721947,-0.0027850865214309154,-0.003488232818467732,-0.004066107290206676,-0.0046288137065892635,-0.005166151244655507,-0.005635708313380186,-0.0060637193942268824,-0.006449907681865224,-0.006863632154433794,-0.007336845850234701,-0.007654452194397789,-0.007929800473385163,-0.008280179118241943
-0.009316111522403817,-0.00897349658106258,-0.007727291225042428,-0.0055276992942451765,-0.002706986552189777,-3.361150585745934e-05,0.0023216697744977647,0.004376097321545414,0.006018293170557737,0.007191935489989369,0.007917480684603826,0.008339459329234727,0.008433824534726755,0.008352585972678215,0.00808840424167337,0.007748302125658126,0.007201710397910383,0.006568408818077234,0.00584929003733275,0.0050657973486526245,0.00427686317294029,0.003593757993202723,0.003143709542771597,0.0030136180355857254,0.003086465326551457,0.0030817462815348863,0.0030756183760325103,0.0028967120231402836,0.0025698330106547268,0.0023030591410325863,0.0019438869430599207,0.0014048418152281389,0.000765781286273464,7.790283034175401e-05,-0.0007243248840291759,-0.0016005125264711777,-0.002286484666863142,-0.0028882583798690896,-0.0034823468015147572,-0.0040533029851576065,-0.004676634978847063,-0.00521206901232213,-0.00560042585508357,-0.006060884648393692,-0.006532194155743272,-0.0069754473198495644,-0.007402135538720502,-0.007802467314013945,-0.00818968950511213,-0.008617604799451808
-0.009330594010083617,-0.009051085203108895,-0.007865388061904323,-0.005689194350364574,-0.002869059283156698,-0.00024368539921202292,0.002224222446089871,0.004392345426726514,0.006086358829794222,0.00735538374954375,0.008064262019244931,0.008445707315522718,0.00862031283925637,0.008553333933205998,0.00833352426639647,0.008032644314057967,0.007427069742245368,0.006726447126586222,0.005967901048423135,0.0051800881503225905,0.004417085117563016,0.0037870543291940732,0.003437982324997481,0.0033053502092685078,0.0032374053633868155,0.0030974703253946532,0.0030264536301814627,0.0029264731455594852,0.0027765017431357394,0.002491526159544213,0.0019414149035554404,0.0014509267341646257,0.0007730511690915998,-1.2947390104718334e-05,-0.0008274192103007794,-0.0016469844392296576,-0.0023108910954530984,-0.0029441606752436964,-0.0036302525037121254,-0.004257701029652604,-0.004750848338181385,-0.005278052866680119,-0.005765499490073968,-0.006228588979923071,-0.006649983534400536,-0.006991738164443784,-0.007418262995601193,-0.007934229077194214,-0.008380284450921899,-0.008688406745930468
-0.008349884920080548,-0.00803206583775495,-0.006912929160915569,-0.005026762028829209,-0.0026785703113083167,-0.00035351849599849476,0.0018430921842598493,0.0038113584942252887,0.005487932776930161,0.0067317154848298005,0.007548949483742574,0.008021628378880886,0.008204512810902752,0.00829137945691911,0.008237960611155455,0.007955656145953414,0.007565471738833889,0.007096272380211722,0.006417117626991499,0.00545990205659924,0.004528122526409111,0.0037937720132616122,0.0030580193529644124,0.0023950702542132212,0.0019312504263917299,0.0017315475699133318,0.0016655959275645106,0.001410158464907932,0.0012802053315934866,0.0011369411959986338,0.0008408923242015544,0.0005334970613159509,0.00026270754918855904,-9.474383080766176e-05,-0.0006769327825049568,-0.001278890329921977,-0.001911473413435754,-0.0025289791983534307,-0.0030333830486899823,-0.0035706059021449756,-0.0041048168070704424,-0.004627341357195009,-0.0052374836140079446,-0.005761091637402613,-0.006183387352856616,-0.006694199468475153,-0.0072619381754154885,-0.007722494567982067,-0.00811240343414624,-0.0084153691856769
-0.008439178359242848,-0.008140232871303122,-0.0068336468066348575,-0.004821325371286409,-0.002559715769144913,-0.00041950393811369144,0.0017413023205179083,0.003491770943741968,0.004918153632126136,0.006027691924223396,0.00656521288892436,0.00678391106827307,0.006987043553548034,0.007068253881553064,0.006902402190705734,0.006583654138722861,0.005992588930281795,0.005306337818847878,0.004624678392480734,0.004069090089734252,0.00352065194932589,0.003180871210642201,0.0031227448233550475,0.0029735126091023282,0.0030311436845271936,0.0031825393961071443,0.002995288983630169,0.0028139146460715594,0.0026207580802700948,0.0023254071008000183,0.001862433901343977,0.0011882602646199117,0.0005858735730934796,3.7561011478900955e-05,-0.0006448262102009504,-0.0014676220543466104,-0.0021925571752896555,-0.0027905865863416474,-0.0032971643150160107,-0.0036505905580344177,-0.004112834414791249,-0.004559742630653854,-0.0049307448257901,-0.005276853976356705,-0.005681518623028551,-0.006095787577634027,-0.006534530634134868,-0.0069393496917926414,-0.007317809580975328,-0.0077481919674129525
-0.007583623168792738,-0.0073631306877220744,-0.006513711074149326,-0.005060245369658022,-0.003095739000781507,-0.0009913109868275134,0.0009560344279407324,0.0027706280449417806,0.004310712650098608,0.005364697473697682,0.0061069769083151385,0.006563775744534947,0.006649990379162434,0.006576343078574465,0.006465898092764233,0.006304156447179878,0.00616634012940343,0.0061029331506395786,0.0058255619637199284,0.005368479031804483,0.0049255458081239965,0.004410029787263536,0.0038475007172296713,0.0034495104313997426,0.003133125060924069,0.002831133234295462,0.002580759135289906,0.002327999325091182,0.0019987398780406725,0.0016894775980504542,0.0014301222275232514,0.001217580697408978,0.0008638064400609,0.00030698709909925186,-0.0003001640775653994,-0.000875220023399323,-0.0013702684880299546,-0.0018930486541397932,-0.0024815694199560928,-0.003155616310860863,-0.0038073690056585193,-0.004416294432318972,-0.005042150698185165,-0.005664401086221148,-0.00626024373460839,-0.00679401692490962,-0.007258761331226871,-0.007652925061732097,-0.007982465156174864,-0.008248989905067484
-0.00887785820580701,-0.00879748903652916,-0.00813217275638838,-0.006885666000821133,-0.005101751290780962,-0.0030870300908816045,-0.0010646398808679455,0.0009236298507008017,0.0026902548175655617,0.004038043503152792,0.0049362783043721764,0.005559020996613286,0.005995204991607756,0.006327141839658291,0.006611310000144375,0.006755239905068,0.00673348811379368,0.006580412689241736,0.006463421714534033,0.006333913829490101,0.005996587448653775,0.005554388970663547,0.004985228932253218,0.0043792022577223795,0.0038609823011391993,0.003453345603030969,0.003049094121227676,0.0026394099978420365,0.0022687767624517494,0.0019269640229019154,0.0015977907588535056,0.001252118059214625,0.0008990191603020595,0.0005318422215203923,0.00012393501444824846,-0.00030254950685058466,-0.000714009812911591,-0.0011763817705932828,-0.001734718696745476,-0.002389717742640201,-0.003063812622133998,-0.0036863333753674723,-0.004281277324664767,-0.004787343084630143,-0.005239027662185479,-0.005773546756999226,-0.006301974154499963,-0.006820411469567825,-0.007253669660957482,-0.007569447590125444
-0.007878247721595143,-0.007705916609689202,-0.007010841800504743,-0.005818112182431805,-0.00411219767804441,-0.002034191000595759,0.00015124502509337653,0.0021328542445138276,0.0036804370399410053,0.00481345785489647,0.005617969148673924,0.006129528121691877,0.006507899688774061,0.006744488060749424,0.006871638690778344,0.0069384411113681725,0.006848605913307907,0.006678450935448554,0.006539154735819728,0.006206882594119688,0.005740753191496306,0.005213535602865643,0.004627102502553276,0.004034281859434621,0.0034768747924833494,0.003026901030269743,0.002603258318930996,0.0020922132360239325,0.001700772869844026,0.0013873313588281507,0.0010003435229398172,0.0007106863187629924,0.0004863780558838753,9.478737380628653e-05,-0.00043400987413024097,-0.001035748659714681,-0.0015873340750228305,-0.0020965432039202667,-0.0026171397179352626,-0.0032211768996127993,-0.003844020379849342,-0.004435302283707153,-0.004993495420759238,-0.005539476852977671,-0.006148231905184553,-0.006660902638645853,-0.007096477723522119,-0.0075646748971230846,-0.008030324188896749,-0.008480876254890354
