-0.0066631015223987036,-0.006636828816480792,-0.0055023619108804465,-0.0033125383009823895,-0.00038591962597234826,0.0020434982030091615,0.003263598052643771,0.00408247390299517,0.004674676906504436,0.005046225990837769,0.00519900760093688,0.00516737943382845,0.005032760975574884,0.00481111911108695,0.004491935189895731,0.004120759981281258,0.003803780785498838,0.0035247229774903145,0.0032033570674241995,0.0028409189251130127,0.002454097454032261,0.001966542952019256,0.0014611647527717343,0.001029755369397541,0.0006775215989247897,0.00037343714799354397,0.00016669843321198496,0.00017007924839326406,0.00025821027507648826,0.000290338061623397,0.00031641239616496023,0.0003701450802514509,0.00036874905735686934,0.000298321682825395,0.00019037930643285477,6.494872064845717e-05,-0.00017351112434154438,-0.0005720041312916669,-0.0010090035870395809,-0.0014056562434517264,-0.0018427116747104344,-0.0023377649194119008,-0.0028276818341146617,-0.0033470898294207137,-0.0039498696554859224,-0.00442535161960688,-0.004829894795776562,-0.005307405816201906,-0.005769555650009708,-0.006187325168620503
-0.006034611928268834,-0.005837977958659414,-0.004719374192366199,-0.0027574360990269796,-0.0002544275081235849,0.0015806509885612188,0.0026624010441833514,0.003347256770168832,0.0038161620165051064,0.004068346086093709,0.004131320125874168,0.004129676299864885,0.003993232686365559,0.0037696830848789773,0.003543008065317172,0.0033054399445827483,0.003109057162873351,0.0029700402516429645,0.002798175662921054,0.002569505012054726,0.002330325273476297,0.0020609189734030744,0.0016995928948944905,0.0013881480445606432,0.0012426618579619055,0.0011203404267361868,0.00102295620035875,0.0010377489169846772,0.0010716658890198255,0.0010486113618938257,0.0010387045137001017,0.0009765811421490905,0.0007682557643440055,0.0004684224153385756,0.00015889116798996662,-0.00017961438688005184,-0.0006300967504070708,-0.001092679948558358,-0.001508926565407469,-0.0019100622846101676,-0.0022894043881804826,-0.0027030000080916694,-0.0031079267975526134,-0.0034063879439338793,-0.0037531802882641275,-0.0041186440840252385,-0.004462123701026807,-0.004790186869878944,-0.005100844690585948,-0.005400918820184348
-0.00606638340756096,-0.0057054174280919984,-0.0040672563523175284,-0.0016072350390208257,0.0007879870220192035,0.0023139750677584926,0.0032274714801520258,0.003838846382315743,0.0041770157035105815,0.004294724762384265,0.004248585292027719,0.004142043041544024,0.003971717651808782,0.003764879589932888,0.0035417384482181124,0.0034192456050804085,0.00328581313648808,0.0031617353970285074,0.0029945140326785927,0.002709950380724308,0.002366335859671228,0.002022943628532351,0.0017195998943226158,0.001487927295609537,0.001403674000331449,0.0014033786010580536,0.0013965840140157605,0.0013386867304587108,0.0012337684141818862,0.001129852720159529,0.0009717747728404272,0.0007689196483831012,0.0005888279699963013,0.00028537087833016924,-0.0001138580897708599,-0.0005689412552413849,-0.001014849404943012,-0.0014709580038691575,-0.0019327709532450815,-0.002373444848849219,-0.0027714050900137727,-0.0031666152779723884,-0.0035294598034093703,-0.0038882658675081457,-0.004230449413560997,-0.004615037174553989,-0.005087690996314252,-0.0054758147125641195,-0.005857443486694346,-0.006293297507920409
-0.00753516567065259,-0.007416237195745435,-0.006154553841377948,-0.0039049546856908812,-0.0010075866889446587,0.0019245381724544556,0.004217507487234726,0.005656542177732839,0.006384775931573225,0.006693523784873777,0.006779057699389352,0.0066912001590416405,0.006462693544704828,0.006105126449998053,0.005729491374627801,0.0054236247885568,0.005055347693174653,0.0045830632537839965,0.003990973313151495,0.0033936475893410396,0.0029319214691714305,0.00259481165874846,0.0023673161993216,0.002224233873536637,0.0022357503565307822,0.002248147603320286,0.0021787707725215892,0.0020776475952377915,0.0018105151936343058,0.0015720228133193949,0.0012198174212251331,0.0006881793331627098,9.172352594415066e-05,-0.00054431929885027,-0.0011969470516429892,-0.0019319334686542105,-0.0026504646361884088,-0.0033117496462237517,-0.003877184312020708,-0.0043321024953973716,-0.004690435983043421,-0.005016610716803526,-0.005323146480167287,-0.0055850857681378685,-0.00587572927828896,-0.006166506426284787,-0.006337842677732505,-0.006643881107802699,-0.007023822048345336,-0.007341134556841508
-0.0051629730323797425,-0.005173925568322682,-0.004501309194690448,-0.0030089741551217962,-0.0007032354819673967,0.001014620786367655,0.0021108267945039267,0.0028564281653639346,0.003364590089116393,0.0036645912823368917,0.003745685447597859,0.003628200535682978,0.003448559144582046,0.0032230386248803923,0.0029377463177114307,0.0027243237312763553,0.0025988982881539136,0.002565109539903184,0.0024301040037898714,0.002208700821469465,0.001956678114503621,0.0017182422620018872,0.0015292673110844839,0.0013520900854748622,0.0012188303015345419,0.0011444623396411036,0.0011163529375996328,0.001103226315146062,0.0011257363267800902,0.0011126771977779445,0.0009920924170747968,0.0008547084789814823,0.0006546026527466228,0.0004245583053956325,0.00017831846464842874,-0.00019230471186811209,-0.0006624467846940302,-0.0010286047881348614,-0.0013487652152953651,-0.0017168489022406786,-0.002121436220399669,-0.0024371653921485543,-0.0026942525295520574,-0.00292682714689858,-0.003182374637379565,-0.0034536773433751387,-0.003726146607848351,-0.004109272563466842,-0.004463297746299779,-0.004698912455215374
-0.005316676623871392,-0.005344970192613931,-0.004362085416563769,-0.002474011431806164,-5.104014444065096e-05,0.0016129644599219544,0.0026292574818103766,0.0032840325098921195,0.0037518480438178113,0.003980271861513775,0.003975056585912261,0.0037973904113630537,0.003572318612463346,0.003337389504698928,0.003113012377557252,0.002927017193662352,0.0028138719427522442,0.0027411281298798476,0.002633648411746341,0.0024234558179949467,0.0021846962656295477,0.0019512288435575733,0.0016613805560220494,0.0014731020348066068,0.0013833877190424886,0.0013090808354006764,0.0012670191862220969,0.0012686292751419685,0.0012687165286906698,0.0011304096661692708,0.0010183760328834341,0.0008862920344523635,0.0005972720108236619,0.0002584246642774334,-0.00012457971080641998,-0.0005474828775498592,-0.0009725335804211001,-0.0013861969426293605,-0.001781255926800018,-0.0021564950684676643,-0.0025332057327592103,-0.0028307680871917165,-0.0030384319407281857,-0.0032921332747261394,-0.0035911338982043046,-0.003921874755249645,-0.004263391766831583,-0.004580214484492795,-0.0048961259888882,-0.005231524250630691
-0.0068154481453471276,-0.006394978865826262,-0.00500003822460056,-0.0028084993098795525,-0.0001596295616756632,0.002446111671631396,0.004573157467093291,0.006005832670200961,0.006746301520773999,0.006970051667790774,0.006866158513862808,0.006617183605538271,0.006395694187672158,0.0060559108343639,0.005638474996394573,0.005233124426260538,0.004767045839349733,0.004252420517010858,0.0036983426312427363,0.003141770597420822,0.002559587861026522,0.0021420695138392202,0.0019041694579995366,0.001701089002223306,0.0016077278362979397,0.0015516829247447684,0.0014053891442266772,0.001226914816499284,0.0010639755410479946,0.0008423257579360908,0.000554345481477512,0.00016960933104849253,-0.0003899562581118288,-0.0009907469907637408,-0.0016079785660974902,-0.0021628288166591235,-0.0027997937307513454,-0.00337721159114924,-0.003814648390209076,-0.0041851720424387956,-0.0045286658758304996,-0.004825445247307012,-0.005063758609629545,-0.005367292675294758,-0.005642802983209453,-0.005847548748767903,-0.006022693647106882,-0.006207671616573411,-0.006414623982395787,-0.006641980736171742
-0.006584173388340461,-0.006394063164708498,-0.004878655090339128,-0.00233569152604111,0.0005264426902639365,0.002245235916159394,0.003289661645178786,0.003995009284552894,0.004455009199343609,0.0046232997708587,0.004557910206871296,0.00437639459527972,0.004235502819750216,0.0040353452447755575,0.0038347916993463293,0.0037071811361532618,0.003666907206063305,0.003531183580036265,0.0032794865703283985,0.002961783737521223,0.0026343402423916955,0.0023389844094632095,0.002114154080177283,0.001981622441058443,0.0018759038326745085,0.0018207343033168546,0.0017983355324792303,0.0017444880088219213,0.0016795329596536977,0.0015351269651680023,0.001294544293799917,0.001030357251833503,0.0006021108404557294,9.967443408540417e-05,-0.00039172772327759583,-0.0009866328310618165,-0.0015419472680289394,-0.002045097953129943,-0.002529403090004461,-0.0029010633127281573,-0.003265029732350263,-0.003622891543795078,-0.0038990650283502967,-0.004208483228750894,-0.004546600379538435,-0.004897296233102865,-0.00526655464321746,-0.00571558814723815,-0.006116785005199243,-0.006349023481786839
-0.008530459743816592,-0.008402583126838994,-0.006687210900336968,-0.0035194582845309913,0.0006187057368396017,0.0043377721121289166,0.007014323667559751,0.008456770779070377,0.009111519921744474,0.00929648805951898,0.009227688642716763,0.008952092667122536,0.008502066698101022,0.007938091013458468,0.007383884250081038,0.006826185408364422,0.006222175139666005,0.005581626554302166,0.004835086770539299,0.003967340275487736,0.003014425058897814,0.0021494674547619923,0.0014087452552556726,0.000836584860112308,0.000541832443929621,0.0003907621097521889,0.0003265138776730522,0.00035461833812047895,0.00034644623591809684,0.00022597568678184803,0.0001063081774402028,-1.3947038371063417e-05,-0.00028172400311154305,-0.0006962509947819191,-0.0012118082825665003,-0.0018565602140105972,-0.0024902472386530905,-0.003025084132469654,-0.0035967264533443405,-0.004274985691384097,-0.004943512307194996,-0.00542057569982048,-0.005899705845174381,-0.006385761175994574,-0.006674637986655578,-0.006998321729104413,-0.007396588197444992,-0.007758616532583816,-0.008075940324122899,-0.008337570751428162
-0.008907604220917327,-0.00832861127839833,-0.005727268993707442,-0.0017550417274656634,0.0025490517031083195,0.005674938591805728,0.007509066132330067,0.008345013659061911,0.008690211651353516,0.00868790807500427,0.008453351412355323,0.00809538983875056,0.007689165990055535,0.007201074621405262,0.006662207646472139,0.00617742885560162,0.005613601712097758,0.0049452448496574795,0.00426374962748746,0.0035010904681734333,0.0028047887157720327,0.002262244185829297,0.001836796946899025,0.0015842508072839428,0.0014262133520915043,0.0013939211390286152,0.0014841073467888328,0.0014988286399794653,0.0013631769025423783,0.0010374432849061623,0.0006236898129588582,0.00012385374676853226,-0.0005110546818476644,-0.0013047529312150287,-0.002104963255086045,-0.002865079081668278,-0.00361588128579704,-0.004284834204823898,-0.00490571836932747,-0.005422036547788833,-0.005842138868734143,-0.006210207633315435,-0.0065598071993068375,-0.006787877858878468,-0.007041063134161529,-0.0074271248476359825,-0.0077744498004773495,-0.008111168374754637,-0.008404860542384962,-0.008634174519026153
-0.006182163380912058,-0.006189076589088108,-0.005481839834417861,-0.003882336876918556,-0.000978679804620635,0.0025871955183106097,0.005875451115761905,0.008383252453167662,0.009743716872896198,0.010254662258978153,0.010194744254860893,0.009809914923487184,0.009190940935409403,0.008418623162867428,0.007609086829146248,0.006762080326591452,0.005871992771215117,0.0050635948799973175,0.004256675427299921,0.003447864700968867,0.0026925169424787247,0.0019745195187428014,0.001363150803558469,0.0008468967888538226,0.00038246770066085545,0.00010855386201485459,-8.791808726493233e-05,-0.00028097536365488787,-0.0004253368516045963,-0.0006083403007527596,-0.000848962014040972,-0.0011650421249024684,-0.0015714769974922219,-0.002076754387138527,-0.0026382040248559132,-0.0030776630299330387,-0.003576706715244926,-0.00410752474542046,-0.004619934597911686,-0.005015440013092875,-0.005254158118465279,-0.0054799297770422055,-0.005667820662221023,-0.005824865226239739,-0.005929725555566502,-0.005932542843932546,-0.00594803549183564,-0.0059795914829397605,-0.006026873633451133,-0.006102741864824883
-0.006286865980693235,-0.005825963980877311,-0.0040649712073017995,-0.0015700276939831833,0.0006165729906194978,0.002004590502641455,0.002917768721193975,0.003728471148785615,0.0041806804112375084,0.004378687212896757,0.004408070916503105,0.004336633551052646,0.004201935235796208,0.003993870518455813,0.0038246961695797706,0.0037613731984756796,0.0037026997513454744,0.0035441455026209876,0.003401764464533595,0.0031755389187921946,0.0027584635474641635,0.0023889446876489456,0.002086654418275339,0.0018061543163383465,0.0016047870980069982,0.0015490162801488172,0.0015270114074060121,0.0014350924434548401,0.0013164817124610242,0.0012194835266458484,0.0010643070814173152,0.0008449471084042672,0.0005935796419189208,0.0002484928894036841,-0.00021165299945052044,-0.0006912411077787507,-0.0011291445975318165,-0.0016032707285872235,-0.0020350136561273122,-0.0024387864811974322,-0.0028401434571306465,-0.0032474245207497524,-0.0036336257422441543,-0.003928879043441989,-0.0042628173801688065,-0.004671444143090388,-0.005144176293953188,-0.00556308801284148,-0.005927297340284192,-0.006242959404815516
-0.005538285410725833,-0.005498196857650649,-0.004816950101463611,-0.0031352313208447917,-0.00013670496298831422,0.0034255175543155556,0.0063342844099595706,0.008108979498308765,0.00899865642267593,0.009232569371528828,0.009053924277519573,0.008657147151479683,0.0081265349263466,0.007416572341007011,0.006728340764090517,0.006057284454122033,0.005371281118727207,0.0046557921385955514,0.0038679459210996816,0.003085062216547136,0.002376411269641673,0.0017773186526400322,0.0012803826218131713,0.0007830038042155138,0.0003399804408283704,2.6354232011693007e-06,-0.0002307306148548458,-0.00033162745963332665,-0.0004293116841530088,-0.0006462098769639084,-0.000960125195123791,-0.001362148849720055,-0.001821406856090372,-0.002292531140204626,-0.00276453671263874,-0.003240579062669708,-0.003688198867761492,-0.004119462256524674,-0.004462302937724672,-0.004746339247886095,-0.005004189355830241,-0.005169578258175124,-0.005322283235611945,-0.005459362794629332,-0.005496224988229567,-0.005490332145038999,-0.005473539680177526,-0.005532506931661345,-0.005596041073397946,-0.005601335681705282
-0.00709157448122652,-0.006722405562808986,-0.0052129806389147465,-0.0028608900092432226,-0.0003546516804590693,0.001545305827348235,0.0028432724674067812,0.003824232622605485,0.004500812523692087,0.004875230268677935,0.004946945632212176,0.004857741212377437,0.004686581233159305,0.004487142853969312,0.004317153824493073,0.004164914028180107,0.004074717125899837,0.004008055573712128,0.0038287489162607594,0.003506501684388067,0.0030631123101232333,0.002559877185345402,0.0021020448826921806,0.001705557151027532,0.0014139179164497574,0.001229700666392505,0.0011225046325270545,0.0011185393151013456,0.001121335796755282,0.0010872576667484393,0.001000090072858643,0.000775449732517507,0.0004904891167821978,0.00020793322459991792,-0.00012419055674743455,-0.0005935581280249558,-0.0011335260379411044,-0.0016684483892912474,-0.002195562014134807,-0.002695884649647374,-0.003187773163042228,-0.0035716593655916646,-0.003948318296407342,-0.004414148875540105,-0.004836791992063759,-0.005241313109572975,-0.005661062274509561,-0.006013550061841742,-0.006348264005321907,-0.006704541279645175
-0.00763491469705044,-0.007456367663037994,-0.005996335836315348,-0.003398317918560627,-0.0002451052725808053,0.00232080035112968,0.0037782150235486298,0.00475112360794789,0.005406362282076487,0.0057713527849957615,0.00588318879278221,0.005841243338339069,0.0057249403829269935,0.005447329038220612,0.005081303110099595,0.004737733944709311,0.004414647378006208,0.0041458564549922815,0.0038563436997742563,0.003493885715517291,0.0030614061402642117,0.002545380271514627,0.0020084730424426546,0.0015373437982390777,0.001136325767066871,0.0008557753369924518,0.0007225495528252561,0.0006270680498006379,0.0005560061738317048,0.0005578733753397146,0.0005446714690167877,0.0005387189309823127,0.0005173936254555692,0.0003780885388108556,0.0001488334196788618,-0.00010723637771161834,-0.0005116580202570729,-0.001001758413129552,-0.0014662438464042734,-0.0019524482304528246,-0.0024933250039454024,-0.0030919709546931374,-0.003708286788480772,-0.0042811145923157354,-0.004747097244757917,-0.005225614855737527,-0.005726496748189729,-0.0061888566288774375,-0.006669013617202997,-0.0071860641682976855
-0.008173633273360174,-0.008052305619399612,-0.006738158513402729,-0.004168770724037192,-0.0004335590546442816,0.0024094738203318533,0.004146253900364779,0.005222205073752515,0.005850975560294037,0.006174174181037514,0.0062796744646395185,0.006149069065889206,0.0058970502565374346,0.005573032658743209,0.00517503689931261,0.004902953255442896,0.004730659820183154,0.0046115429457814685,0.004374534069612744,0.003959597338092616,0.003499855250868181,0.0030018636273893063,0.0024371097702663444,0.0019226496089689473,0.0015573000864819806,0.0013663851696356737,0.001336103948395639,0.0013568954693398592,0.0013346380933271407,0.001257144959574445,0.0010676378052542866,0.0008336621962671224,0.0005583385321828656,0.00021038354718882455,-0.00024204528289494863,-0.000799417656050086,-0.0014252530009107082,-0.002041265618958865,-0.0026495014355138007,-0.0033006848435775185,-0.00392312742187862,-0.004395589812954922,-0.004817443701972684,-0.005285588398710332,-0.0056411574061808155,-0.0059843836932489455,-0.006417188131069447,-0.006955453960098353,-0.007401716077510401,-0.0076516340544939086
-0.007854692342463011,-0.007392394534582192,-0.005523662679380695,-0.002445787337256756,0.00106969190941008,0.0035816838724161914,0.0050563394020738525,0.005925244944291181,0.006400163313561029,0.006530453238795544,0.006480045695346176,0.006250254519435479,0.005835317260733955,0.005411097997357296,0.005080039705017459,0.004864119873536006,0.004766112400467164,0.004609654612033021,0.004282634762122773,0.003865550659179867,0.003326685804272543,0.002734952236624383,0.0022076249560063874,0.0018607539342456489,0.0016227874708543144,0.001459608938946969,0.0014159783972453536,0.0014601695973089374,0.001406448238507565,0.0012948454683295448,0.0011138320672907673,0.0007799591731700923,0.00032571358451741693,-0.0002081960618466837,-0.000788588460700555,-0.0013710249860335627,-0.0019593694442093046,-0.0026335740490027884,-0.003257873276930523,-0.003745817222688156,-0.004253552878221812,-0.004773822619243697,-0.005159856583508734,-0.005479553691932883,-0.00585873463610607,-0.00622660349126927,-0.00661083294406115,-0.007062739723725365,-0.007453710732162345,-0.007673630541842088
-0.008178406492128134,-0.007989101523493799,-0.006515663639319355,-0.0036967123683617716,0.0001379019634669392,0.003221261939771111,0.00514201554186008,0.006097861318993819,0.006573711862790514,0.006757439852367954,0.0067218073834507674,0.00645319833105424,0.006119166913933838,0.005805939943411591,0.005539638797664252,0.005326931511341808,0.0052463303388747716,0.005119092057997729,0.004816920601170849,0.004387045362869887,0.0038224640203138793,0.00323678641438629,0.0026659518633818714,0.0022166395289036868,0.001972860156592108,0.0017612621464562273,0.0016674859308621365,0.0016414650528069432,0.0015736541386298952,0.0014660422599707234,0.0012124682076332248,0.0008572294103641355,0.0003875356076558705,-0.00019883050025650914,-0.0008449015750805162,-0.0015663744216272584,-0.0022679108084146075,-0.002945374868734623,-0.00358354026535037,-0.004149355858151452,-0.0046510649705801,-0.005035083830133956,-0.005351143768058212,-0.00572833525734508,-0.006062384044871287,-0.0063558852735772125,-0.0067078975628502,-0.007150261542216487,-0.007567807138899411,-0.007886107170100933
-0.008207564717310772,-0.008018019802121397,-0.006617595863394249,-0.003964096985664843,-0.00020930385021161938,0.003128899815644342,0.005464650699129624,0.006804627229761139,0.007521217437213604,0.007747704575894225,0.007674245989681738,0.007458507400078282,0.007081489711272105,0.006669548720809743,0.006300289243962906,0.0058819867116779515,0.005444069316909926,0.005124323240289786,0.004770211615147495,0.004285934888238186,0.0036917335702493885,0.0029831472721929633,0.0022742422170183,0.0016981986359193093,0.0013352671124964343,0.0010475259250541454,0.0007634833101665754,0.0006330740456781922,0.0006270366899511282,0.0006089519682076852,0.0005027651634117773,0.000332791440598527,0.0001032281851869959,-0.00020749824329047107,-0.0006502972958353391,-0.0011845288281837779,-0.0018288822655139095,-0.002517691374732332,-0.0031384324113296635,-0.0037310886944695635,-0.004324173352780051,-0.004858275642872822,-0.005312792197221093,-0.005752069822730783,-0.006210072227065132,-0.006617143082514832,-0.006971294405316115,-0.0073248438928042005,-0.007666263087066259,-0.007982064307239366
-0.008076970784492401,-0.007511775802307259,-0.005488588487985388,-0.002300099717403771,0.001116500217789239,0.00375608639952337,0.005182679336427864,0.006062128629743738,0.00662586034023698,0.006985522097002388,0.007030247537953391,0.0068583205470378935,0.006635923408138645,0.006310905292548225,0.005960192404584932,0.00568190534572907,0.005381534651337625,0.00501186881012095,0.0045486761376386815,0.003988174085942203,0.003324808857161893,0.002632075576379096,0.001969029083101506,0.001384111534988464,0.0008697629526851021,0.000465473307268375,0.0002015718262059928,0.00012453252879638491,0.0001277677949026554,0.00011998921146964181,9.773201333115387e-05,2.1821389876482977e-06,-0.0001450505759542209,-0.00031950946201289056,-0.0005632594096737545,-0.000871024843365026,-0.001252385043670289,-0.0017341430326596366,-0.002312257773008825,-0.002928463083524776,-0.0035410995750623855,-0.004114632672871753,-0.004770378478249554,-0.005403524993913115,-0.005866313717177504,-0.006356693457549839,-0.006855331666776284,-0.007229885781592291,-0.0075906182611629,-0.007977124407631625
-0.00787963000046436,-0.00792375916087688,-0.006785767224596338,-0.004478490381444301,-0.001207132766276459,0.002389624120790487,0.005109028688122975,0.006776849469056237,0.007565699254827182,0.008077499184118483,0.008385831383208808,0.008443671028320086,0.008283657898073473,0.007906873023996685,0.007354521414058052,0.006678767487417275,0.005933842032947812,0.005163920223365244,0.004367927444466185,0.003625353930201461,0.002964876802658247,0.0022372374685242294,0.001425517533765785,0.0007357837873456393,0.00020865796142527344,-0.00028765786688594744,-0.0007416548878993994,-0.0010125951417621014,-0.0011380403913618454,-0.0012265504023545092,-0.0011905161582642138,-0.0010692644423501334,-0.0010172357723676902,-0.0009498222423927744,-0.0008692535867193564,-0.0009101011199580923,-0.0010697993764176978,-0.0012962721243101273,-0.0016453464282407116,-0.002107243625769844,-0.0026152431375969704,-0.0031849442672696876,-0.0038197236201050907,-0.004450850823057541,-0.005076114176808674,-0.0057136024111382544,-0.006331905602746271,-0.006894467814778123,-0.007330122435645356,-0.007630209133073834
-0.008276296305094582,-0.008246505218028619,-0.007426211025377086,-0.005422842354158886,-0.0016552455703814385,0.002004580038908249,0.00466302032121233,0.006000751112933015,0.006864610560858566,0.007369684447522509,0.007445392738395997,0.00729677668994778,0.007013069040507268,0.006646098581424051,0.006120217608966705,0.005621830080286246,0.005328687028527528,0.005084336747173678,0.004746382526793058,0.0043108582587851494,0.003807551338207718,0.0031960244181935813,0.002583974765536192,0.002017945953553559,0.0015080219012033752,0.0011971296898606715,0.0010253440628334694,0.0009063289816442418,0.0008596598890443273,0.000863852434202433,0.0008102122199513895,0.0006210260317497868,0.0003399392306465958,-4.676246205701513e-05,-0.0005171075648347558,-0.0010646447544945584,-0.001663011721663675,-0.002246679851197863,-0.002855580165336549,-0.0034764182283244793,-0.004086559826418061,-0.004600544357726,-0.0050912385343903615,-0.005610365024831199,-0.0060209740287558745,-0.006445681642531578,-0.0069208478577293345,-0.007369478290022674,-0.0077464654962982275,-0.00802665669043954
-0.007937084196959565,-0.008049887760022408,-0.007311064029659399,-0.005473651886659546,-0.0020999744722116466,0.00114314137786876,0.003547666663860599,0.004943091267088561,0.005891310771888358,0.006504613470924117,0.00666302924397307,0.006603529534133493,0.006400712107084594,0.0060793312025243735,0.005623145769583,0.005177477320320985,0.0049038716174977055,0.004674698278593989,0.004462474196701937,0.004171443986279913,0.0036774964367113647,0.0031300922666187927,0.0025738384632368327,0.002011546601452862,0.0015147008901177795,0.0011619123016685545,0.0009255644573256391,0.0008073968674701551,0.000774762547953864,0.0007806162664067111,0.0007836150216656427,0.0007231512455153886,0.000528831110104993,0.00022437715139070414,-0.00013147196825917241,-0.0005250253869508541,-0.0010518940565729348,-0.001663816089425243,-0.0022390388416387826,-0.00278839491054357,-0.003342984249860402,-0.004005506336643846,-0.004599337870405097,-0.005064562777529258,-0.005528465161719913,-0.005955706306159842,-0.0063468399217219956,-0.006790475486279352,-0.007182049056063471,-0.007475089444697591
-0.008347549384502006,-0.008333468515053635,-0.007201041826372527,-0.004743009705680544,-0.0007157414296306237,0.003105673381333022,0.005762406521417206,0.007173369234995897,0.00788504439446116,0.008162332190841285,0.008250801844689501,0.008134273621126297,0.00777623728045006,0.007196547808486063,0.006563632349597169,0.005982311077188453,0.005470804443448821,0.0050533514175401546,0.0045809949884820225,0.0038950363570645795,0.003172434831937141,0.002473552586988906,0.0018513915744804003,0.0013966165029310556,0.0010742397535277873,0.0008024165966127436,0.0006084776969378223,0.0005170571384633275,0.0005217353888659292,0.0004647184797312165,0.0003690795691796255,0.00023003737049023066,-1.5946556132294902e-05,-0.00030101893807284814,-0.0006721351664888142,-0.0011566108934080571,-0.0017721036149146163,-0.0024722977225736216,-0.0030828793259017467,-0.003640136107423453,-0.004215376007412776,-0.004833106786530373,-0.005346410677543454,-0.005787825883276498,-0.006291829445275456,-0.006720273233683127,-0.007085904997239077,-0.007462100817807973,-0.007809862621506477,-0.008096367898085797
-0.00827928920952221,-0.00824440034271021,-0.007017208879895114,-0.004380238432994843,-0.00016301050257116153,0.0037947481841596326,0.006563843887242809,0.00786557203898919,0.008539861247274457,0.008797690714640437,0.008719767358125439,0.008422477288619928,0.007914874818396176,0.007297094397746368,0.006635461959166769,0.006029977979853792,0.0055847802649488035,0.005205034184434269,0.004700298650992958,0.00413445186794986,0.0035698279204070204,0.0028789247884472282,0.0021685454364414576,0.0015678794641261497,0.0012088408521278152,0.0010301075330389595,0.0008507314325531129,0.0007271973643627784,0.0006263637685145122,0.0005243423299412214,0.0003168340169141672,2.8959379627181485e-05,-0.000250605639432266,-0.0006116875023895087,-0.001125968457563751,-0.0017444404527525118,-0.0023989190487650786,-0.002993352654761906,-0.0035976576915974683,-0.0041810716514193045,-0.004753615848029966,-0.005311296225122121,-0.0057410020527771805,-0.006105149554721455,-0.0064588290498216044,-0.006793678817629009,-0.007136509165340439,-0.007492288541737814,-0.0078116879460184505,-0.008060620192476624
-0.008692506931368086,-0.008487141261270436,-0.006658456350014165,-0.003360065499616939,0.0009471502585742225,0.00415714522085644,0.006135934092317068,0.007168636493425315,0.007678705621757131,0.007882240943836799,0.007841997374486596,0.007550820938363928,0.007139239804195169,0.006714033799615551,0.006235376421258005,0.005810330454931128,0.0054861207142420905,0.005246506327477963,0.004876283058685706,0.00419607479393836,0.003446933791232812,0.0027928201229152697,0.002264339196246079,0.0018272174731744524,0.0014208926268071578,0.0011592532443832765,0.0009979986054719106,0.0009116795868162562,0.0009205015042422421,0.0008563937576397682,0.0006059096153379031,0.00035941131293436057,8.549447913178511e-05,-0.00048820398907853895,-0.0010740496537644001,-0.0016410516549568315,-0.0023890683703252785,-0.003075051665112425,-0.0037248955430320427,-0.004289211256449492,-0.0047717183313310835,-0.005297373201003689,-0.0057612971420571,-0.006162588349254679,-0.0065871550552448225,-0.006997800670347218,-0.0073560004718947304,-0.007691377824260206,-0.007994632200837948,-0.00825503568086121
-0.008265353670618394,-0.008027441458959575,-0.0064082859213047665,-0.003512233031475967,0.00021708732768090344,0.0031903067265090677,0.005061514914663776,0.006087071941360286,0.006705712494543281,0.007076304861418964,0.007034731103819848,0.006788845293889479,0.006458878646923416,0.006058505810241987,0.0057033910517129095,0.005393444007764387,0.005085115260029353,0.004833046525729846,0.004556570427968099,0.004154489946065107,0.0036118586387846353,0.0030034063496058275,0.0024410156842612747,0.001973555908862209,0.0015754110813131872,0.0012697883777196294,0.001148300515541197,0.0011221236245407057,0.0010667255796138109,0.0010060876376111502,0.0008992352471960792,0.0006372216519712022,0.0002661394544399928,-0.00015230610406122638,-0.0006265404916929151,-0.0011518457482538236,-0.0017045716471576025,-0.002338331133851374,-0.002984743937786209,-0.0035989668530675796,-0.004125096323283316,-0.004599831911395278,-0.005088182645610854,-0.005558539466615801,-0.005966043875736841,-0.00637126364412067,-0.006780713509314649,-0.007116314207237531,-0.007492836288600381,-0.00798051354105495
-0.007442939887198805,-0.007372753443103957,-0.006256721714390444,-0.003955800919997227,-0.00039405760618809284,0.0023811559806201036,0.004009300489250087,0.0050422750042670925,0.0057402308448672905,0.006097665038103064,0.006151753314883071,0.006035743267121684,0.005800209135099427,0.005512845718108138,0.005128219584916027,0.004672191618209381,0.004349708912325919,0.004231744905581235,0.003998227014542758,0.0036362652208943693,0.0031981702238304587,0.002768350651842267,0.0022543797906456058,0.001762227461375232,0.0013561836814095659,0.0011012695704172386,0.0010214599406892088,0.001001181792696552,0.0010324463725069084,0.000987608859953732,0.0008426532197640082,0.0006211386265994414,0.0004091740085863015,0.00020671445384603626,-0.0001442818901828236,-0.0006945260350979573,-0.0012819237794707982,-0.001776810093000005,-0.0022701585602577187,-0.002818230503038055,-0.0033842858393528775,-0.0038445090138586936,-0.0042475048061014955,-0.004645399572974369,-0.005032304041329944,-0.005439675442875061,-0.0058857712654146795,-0.006298672638341225,-0.006682419549864253,-0.007043042903766112
-0.008425342688856993,-0.00821360500384533,-0.006803011650993025,-0.004062179051635215,3.7537600144598544e-05,0.003505632984016875,0.005725726164676444,0.006945980362708315,0.007603120650853249,0.007803168401506825,0.0077484158652555025,0.007494908652002037,0.007092395292674085,0.006662494684409441,0.006155981739228814,0.0056575834866351045,0.005242413299880603,0.004961815736879315,0.004705226904218871,0.004183239598648523,0.0035572461693280017,0.0029365991415415365,0.002274697866276892,0.001756531656590806,0.001433385134035241,0.001161848590806834,0.0009566103302357422,0.0008405609980593956,0.0008696520115885071,0.0008714784236801655,0.0006988647646747646,0.00046389709874937804,0.00017126031378393784,-0.00021832265595725289,-0.0007121345424473154,-0.0012872935008350842,-0.0019541854294096153,-0.002597483104805995,-0.0032128224516070184,-0.003809459195329929,-0.004445637597580961,-0.005018689701697889,-0.005493416067583225,-0.005928780303086389,-0.006306391340555366,-0.00670226317883018,-0.007148517379897424,-0.007583221341275506,-0.007966468927347602,-0.008278677701800682
-0.0077325221778299,-0.007350948988475272,-0.005908268748233372,-0.0034432517164016555,-0.00012221798735452235,0.002714463266916741,0.004639208173654092,0.005781964895190548,0.006446024456437384,0.006763496190637872,0.006806703191671227,0.0066758852155844855,0.006377160629222533,0.005893303140464356,0.00543321996889578,0.005066650695777393,0.004804263837138066,0.004545915467786284,0.0042264222335701524,0.0037908006559703097,0.0032425280337681417,0.002659753454959006,0.0021197611973401516,0.001520971548356795,0.0010619154545168966,0.0009189008490826046,0.0007634066576175766,0.0006929560578547392,0.0007941186304188986,0.0007641903324953141,0.0006710053416762908,0.0005738515219932801,0.00030711710401698847,-4.375908572698035e-05,-0.00042045593648544775,-0.0009145675747392801,-0.001428004157162366,-0.0019182139762878672,-0.0024999272636717323,-0.0031204769223280417,-0.0037224777066158557,-0.004243465535918924,-0.0047636140565300664,-0.005283185776753255,-0.00566466811947099,-0.006070373173381735,-0.006531114362198491,-0.006900638567975537,-0.0072452630092394695,-0.007598166137461855
-0.007144305307406123,-0.006950697164274733,-0.0055976526318227875,-0.0032052778150556587,-0.00021502203907624792,0.0023334610878999987,0.003968104950187352,0.0051111256558967295,0.005831308644319369,0.006138139511613651,0.006243565877622034,0.006192043937822482,0.005926358935234669,0.005630264214383636,0.005321711085052638,0.004946037025935863,0.004596406565221721,0.004301154041729082,0.003998784439286397,0.0036516985634862525,0.00317092233911666,0.0026093419629514515,0.002035587460085162,0.00143610919406905,0.0009745609149053632,0.000681874377773348,0.00045353816829388314,0.0003373680397395897,0.0003463367504706978,0.00039391024232474526,0.0004368740500203909,0.0003656792066063879,0.00022380933544356097,6.87869695147465e-05,-0.00016848954015689192,-0.00048265074182502973,-0.000882361503957323,-0.0013931543809541,-0.0019409663241882196,-0.0025122826015177243,-0.0031197085267693535,-0.0036414274829861177,-0.004101136409529451,-0.004587197117828634,-0.005084892171027278,-0.005514452734129696,-0.005929029537302395,-0.006385294753235289,-0.006778081607747746,-0.007068714310411508
-0.007275821850568881,-0.007209352286662693,-0.0059520259199404,-0.0035823920608313623,-0.0004008486664233928,0.00241208800769232,0.004088814655901786,0.005203508451974962,0.0059539963204157656,0.0063434446367811505,0.0064291396310119184,0.006319879806694057,0.006075771017265681,0.005672778733171274,0.0052210803518367155,0.004801400668371247,0.0043368011165307975,0.0038690327077067848,0.003427547831120794,0.0029524651278036084,0.002405925479670011,0.0018132074371326311,0.0012893177649574215,0.0008858980308258733,0.0006492202258668696,0.0004575765469726024,0.0003025541633577235,0.00028171811032639654,0.0003026575745541979,0.0003106518794334794,0.0003557046489786046,0.0003565573095804927,0.00026524452082900393,0.00014513521211253572,-8.224270341695701e-05,-0.000387153501383476,-0.0006985016685450936,-0.0010698361018883864,-0.0015557600847981236,-0.0021201721951940094,-0.0026163665070296116,-0.0030954085220668325,-0.0036372884097519093,-0.004199483729028564,-0.004751055769493943,-0.0052076313088081335,-0.005618264239734369,-0.006044424731532743,-0.0064248439886858775,-0.006743202519347316
-0.007763581841790333,-0.007596266103865603,-0.006211273003080613,-0.0036855032673985245,-0.0003725402992071819,0.002494729289996166,0.0043623803304856665,0.005541132818547765,0.006260898143101842,0.006609576931221514,0.006751658274273485,0.006700714205545888,0.006385672089212221,0.0059307221330122,0.005513276330031911,0.005093609184260205,0.004663653756060863,0.004320512617719532,0.0039529078773242535,0.003480857995328497,0.0029763288107606295,0.0024101445541766632,0.0018283431650527103,0.001389821125374895,0.0010358439415152892,0.0007424847139425796,0.0005813275297411655,0.0005318332475339895,0.0005790288562313371,0.0006423711550989929,0.0006162070077838044,0.0005514276127872138,0.0003735907500858426,0.00012336961986337587,-0.00016288474618269261,-0.0005812146715709218,-0.001039952151126611,-0.0015163206365714278,-0.002070497878450118,-0.002660092076338478,-0.003221965785606853,-0.003716420442020128,-0.004268003325711277,-0.004843458184988393,-0.005336291735994477,-0.005803603522168118,-0.0062824814382229695,-0.0067662123653906125,-0.00718872644644446,-0.007525317651960246
-0.007599622686575537,-0.007561942278226761,-0.006441747632429334,-0.004175284802351897,-0.0006410836076831521,0.0025894978609980073,0.004696615050124377,0.005900938143723882,0.006614244373025877,0.007049979605377281,0.0071461325853303,0.006973901984215871,0.006650858273176796,0.006254240180845028,0.005738064108089892,0.005173148048837415,0.004689977367181672,0.004164724273034204,0.003596411085967971,0.0030878984175018768,0.0025758551498028673,0.0019600563591952425,0.0013107363513582288,0.0007702097769296413,0.00044656752889972375,0.0002719561536569405,0.0002066203987241372,0.00022522458165508174,0.0002444460029910199,0.00030533978063151967,0.0003744919582159866,0.0003964804415478651,0.00034323805421407284,0.00022851906623368032,-2.3863780222106254e-05,-0.0004780157401974024,-0.0009363371846275531,-0.0014096728242345125,-0.001990881038453757,-0.002552238164006542,-0.0030815125914275803,-0.003611978168567928,-0.00420816529670769,-0.004805530228673452,-0.005319330959569093,-0.00579150035146351,-0.00625208252226369,-0.006688954873873919,-0.007097368808607859,-0.007483210496434007
-0.008064776683370781,-0.007970274496218208,-0.006582134104588304,-0.003977108909360068,-0.0003909031745652382,0.0028741719644720803,0.005052936711267173,0.006291715983889551,0.007008708376944837,0.007484087319240537,0.007585053531066392,0.007406990284319322,0.007112901713831113,0.006641752033777128,0.006058904055455628,0.005571082594465331,0.005126239953618101,0.00461714722035379,0.0041125389287458205,0.0035532004426870136,0.0029314304914996514,0.002308025136579379,0.0017219925790450045,0.0012033898404582347,0.0007575034955736489,0.0004504890977887042,0.00027572911266612,0.00019568479557947196,0.00015881413797694436,0.00021674976703928533,0.0002754078337690423,0.00027911972741666193,0.00026395167263663173,7.549487654693616e-05,-0.00026594427130131567,-0.0006402236919907571,-0.0010770106567155036,-0.0015444396750110526,-0.0020226484399125805,-0.00258232359271783,-0.003186539642673929,-0.0037702993130164196,-0.00435770690412043,-0.004945752256647081,-0.0055213292466713,-0.00602178220300583,-0.0064866123505906564,-0.006957396864186237,-0.007397662317511639,-0.007802487989334623
-0.007837526915577184,-0.007563912899449579,-0.006144823604787704,-0.0036253099110527555,-0.00030456022997661246,0.0028212931900908752,0.0049157269427169735,0.00621697858178419,0.006996926173193091,0.007449525921828984,0.007594295423647526,0.007500256885901789,0.007221161756695631,0.00675770355842345,0.006232330610217435,0.005683349910590181,0.005069017413741934,0.0044527183451131295,0.003824829565616373,0.0032631098392024603,0.002730674827401006,0.002070854624287302,0.001411817442758038,0.0008784099837571612,0.0003738873666354529,-2.0022319256466325e-05,-0.0002647425411707941,-0.00040677680246181973,-0.0004459035394533747,-0.00044689724196028083,-0.0004784685872603287,-0.00047330298023298776,-0.00043617618140781654,-0.0004485077193162014,-0.0005399757580115158,-0.0007017048068302448,-0.0009802747953260773,-0.0013848219172901718,-0.0017881955869567204,-0.002165843985569917,-0.0026947667382525757,-0.003338363280279832,-0.0039535557006247935,-0.004552065351495537,-0.005134846321810409,-0.00573035997875126,-0.006267749941433806,-0.006671492963443877,-0.007047803466023563,-0.00742407697980699
-0.007989616163672912,-0.008015861909373782,-0.0070163638784848225,-0.004888118695613137,-0.0013486318891956207,0.0023824375397587068,0.005409248155813498,0.0070754230983747345,0.00787867632918113,0.00829106633270789,0.008441616409940251,0.008372353309554395,0.008075024554716637,0.007483924880837958,0.006769769315052585,0.006091882803715342,0.005405837638926872,0.004714012980855937,0.004003982850593759,0.0032900217939137223,0.0025624524163889843,0.0018486467941486965,0.0012125875214382912,0.0006671587864788072,0.0002389693002900261,-5.4296265270623186e-05,-0.00020861119748831372,-0.0002484622156218982,-0.00017767524906832632,-4.6481458867944724e-05,2.8611191950979723e-05,1.706492399087357e-05,-0.00011517427242816066,-0.000283461111908401,-0.0005485823057598917,-0.000955109745709497,-0.0013287066204280737,-0.00171431393007072,-0.002210624988520471,-0.002831422416838404,-0.0034079561578685704,-0.003867879006926657,-0.0044797543848828555,-0.005133626785744287,-0.005658247972011634,-0.0060724644207107575,-0.0064425687976697055,-0.00689501405080512,-0.0073124423946426724,-0.007650465900149053
-0.008080617413978457,-0.007961036316255046,-0.006850115474372318,-0.004630345948384982,-0.0011461611202367608,0.0022612381817083923,0.004876771077335042,0.006357510601161419,0.007190324439070165,0.00760680587751422,0.007694458358402437,0.00750267805673666,0.007185308084115913,0.006821097511648233,0.006341530724035928,0.005865832977289841,0.005407704336229205,0.004945030431087116,0.004487229734157606,0.003971237042481153,0.0034106115952099213,0.0027994381763605746,0.0021254239458076566,0.0015207765515040206,0.00106789897270307,0.0007925303956353453,0.0006077013686854715,0.000496715105398407,0.0004803223843571916,0.0004802089666845107,0.00041706741199216,0.00032266620018840913,0.00013363727177901773,-0.0001993845978735741,-0.0005980883228513213,-0.001054508078376782,-0.0015492137307179057,-0.002097090292254764,-0.00264550488171444,-0.003185502055190566,-0.0037827942612591024,-0.004338043668325424,-0.004831396640611038,-0.005328302239926521,-0.00579175797623136,-0.006193767180513546,-0.006593098203363626,-0.007022788844541621,-0.007439378629026594,-0.007834454027392869
-0.007682139976579763,-0.007581225161405583,-0.006418393798037959,-0.004052315314713605,-0.00034707912359750287,0.002862679412655146,0.004925291310300818,0.006128008391654933,0.006860613073258757,0.007215352385050081,0.007264713962240717,0.007072489918615564,0.006694107955939404,0.006200980321323596,0.005619605336552375,0.005059935840207377,0.004618261526726062,0.004304706258954144,0.003966203233805021,0.0034403974904268844,0.00288211866618399,0.0022866401250414043,0.0017634572799808189,0.0013905356561922679,0.0010963743485850681,0.0008944544777298358,0.0008020710771940763,0.0007695823246618945,0.0007663349909943607,0.0007460479988323171,0.0007091323791622358,0.0005635402834610391,0.0003069597034852559,-2.232346183575974e-05,-0.00043648007631632375,-0.0009274424941899051,-0.001472733750477562,-0.0020227335639570556,-0.002565710500159828,-0.003153520650904114,-0.0037054628700678117,-0.004215756623343059,-0.004703180038879861,-0.005182920890849189,-0.0056610045937658445,-0.006059028803574659,-0.0063965602546552855,-0.006805202982008263,-0.007193988264230372,-0.007521280276718561
-0.00728213351077092,-0.007197504340596389,-0.005969217134334906,-0.003553109022318766,-8.031208528113299e-05,0.0027169918692662052,0.004517921634226489,0.005570191180499199,0.006189840931901628,0.0064399742954437,0.006373145329145849,0.006163790902115668,0.005801709535406668,0.005279083945041096,0.0048227777434004,0.004506585691199031,0.004270930443051761,0.0040139226559518385,0.0037366728458174702,0.003409496821593784,0.002963693307840568,0.00246045559623677,0.001984347535426402,0.0015399474788676312,0.001290976018662429,0.0011339152243096703,0.0010095272496233587,0.0009006537845331815,0.0008792676134980598,0.0008830448973221831,0.0008191336300083752,0.000660044774160448,0.00037557927170717365,5.0350930859836e-06,-0.00045428911954701186,-0.0009345401358362119,-0.00145650753085394,-0.0020992619431058506,-0.0026787968963973225,-0.003149634425221695,-0.0035817831054852103,-0.00403438808447294,-0.004445975183042187,-0.00478514132897757,-0.00517380260286559,-0.005544582882038978,-0.005894190100264371,-0.006242719773932448,-0.006572371288724876,-0.00688204018538825
-0.006244825951886761,-0.006039971159151051,-0.004546545938573861,-0.0020122895998667656,0.0009101013960007374,0.0031312232578462494,0.004481364967920157,0.005212289862097389,0.0055935118678203995,0.005705728738540478,0.005560702278975692,0.005273089494192888,0.004892264598343332,0.004475782813133565,0.004052096003690725,0.003717007942515159,0.003509542853237382,0.003280782845153753,0.0029265802978068033,0.002544396657009793,0.00216474279331295,0.0018036584931864677,0.0013887218261000622,0.0010123943152052493,0.0007921364335708584,0.0007048512469266017,0.0006838598327256332,0.0007545734020374815,0.0007876484273075808,0.0006909990252526681,0.0005650079715530379,0.0003846261622754799,0.00017284135432116856,-8.808614672796209e-05,-0.00041898592537385846,-0.0008330576319958802,-0.0012996124587704417,-0.0017878914111141917,-0.002240773592994241,-0.0026786888488034076,-0.0031246048692359853,-0.003571573342604574,-0.003983543881244953,-0.004364227734742489,-0.004712965103685593,-0.00503137529768852,-0.0053413142286331886,-0.005678515979002497,-0.005999440568999564,-0.006281724584534682
-0.007496132252786135,-0.007013313187279361,-0.005162389252738414,-0.0022526098253568905,0.0009340472536457887,0.003361021107490773,0.0047795891431945915,0.00570152554811267,0.006247521538389948,0.006462039668493605,0.006461000545410112,0.0062981563966250775,0.005966154226115137,0.005467283143122159,0.005007044667708323,0.004654918309598831,0.0043346759183098904,0.003994246132857598,0.0036603473001969077,0.0032163609030284547,0.002613945419948352,0.002033328533397772,0.0015673317557147945,0.001118146496035314,0.0007686603530285783,0.0006663776612691573,0.0005852453156509707,0.0005581673432356384,0.0006293686345974326,0.0006216294477626805,0.0005676481905744053,0.0004238166298010836,0.00015679583465486358,-0.00020310751618685113,-0.0005620525801396468,-0.0009455456806385244,-0.0014032049880856525,-0.0018924999438074941,-0.0024439081010836665,-0.0030649864941775214,-0.0036751776738685126,-0.004154704559076894,-0.00457707196479432,-0.005011735572156249,-0.0054992475064050686,-0.005945666642802028,-0.006335329321071242,-0.006737869720122874,-0.007077596635464575,-0.0073206705826769315
-0.007728326073845759,-0.00755436579658385,-0.006273066748430112,-0.003842849973101775,-0.0003493183914893795,0.0026104603471519003,0.004577555281950385,0.005834290165467196,0.00654881905763291,0.00685429436527962,0.006929226720381307,0.006743840681688958,0.006408111311229825,0.0060313995095755395,0.00556970084062927,0.005169312331286547,0.004878742586631608,0.004540834647292522,0.004172364986497827,0.0038158172172765127,0.003383369461524951,0.0027726940856810335,0.0021698623794013153,0.0017164363197420597,0.001290933873182088,0.0009738504505580149,0.0008917963532996175,0.0008669926016512061,0.0008343058649167772,0.0008684356584131676,0.0007840633386312752,0.0005990987019757052,0.0004001104554346831,0.00012501418714842754,-0.0003427958099211476,-0.0008415234441634337,-0.001362918320532416,-0.0019077323892690433,-0.0024492785917019293,-0.00304272000155206,-0.0036248461064370937,-0.004138406388512806,-0.004623360342283037,-0.0050978324542407865,-0.005559518567904304,-0.005971771829159588,-0.006340450120170399,-0.0067334197528950285,-0.007124843206006459,-0.0074939261390944475
-0.007905108593505659,-0.00767995318431827,-0.006675596894024152,-0.004715978577587338,-0.001497886650120532,0.0017527447636917631,0.004156506395522451,0.005549925578763118,0.006436308421637282,0.006965873184050878,0.007169982228612306,0.007100092204386887,0.00683725278178733,0.006453791112013404,0.005991654059955191,0.005536884334609989,0.005154575301167012,0.0048132663344942084,0.0044627259400934986,0.004000788094867043,0.003457782412327151,0.0028721509086746116,0.0022453385137274997,0.0016834860894774817,0.0012188153098615635,0.0008396033336943715,0.0006292601066728842,0.000573093701219176,0.0005630989607925915,0.0006070914960860627,0.0006110128235032248,0.0004852937680638941,0.0002772532975126393,1.2526062605191042e-05,-0.0002930031107619416,-0.0007102883755914094,-0.001158493130407703,-0.0016659654750957411,-0.0022469938784929282,-0.0028169484178397993,-0.0034190006649195553,-0.003989145768975408,-0.004513816893779647,-0.005021484494157892,-0.00546088540783245,-0.0059138059928118755,-0.006370231522781591,-0.006782019151479983,-0.007199371739742308,-0.007634419453478767
-0.006791637670750615,-0.006552091416770986,-0.005303891578152718,-0.0030502196494853187,1.6275926785641797e-05,0.002432917673466617,0.003911412315275769,0.004897040976101826,0.00552058573690788,0.005801864137458558,0.0058318262373402065,0.005664947935853913,0.0053606414717852725,0.005036157776390443,0.0046241431350232814,0.004208046311106481,0.0039300256189366755,0.0037528912778807544,0.0035117590506348216,0.0031745160075509643,0.0027880189116411282,0.0023004948897276715,0.0018069900550819202,0.0014046234092378953,0.001160121738787393,0.0010416826007816418,0.0008946708976883949,0.0007566025037195159,0.0007437522039896709,0.0007495483817435806,0.0007141173519949034,0.0006058493363558303,0.0004171230861029863,8.276654254682721e-05,-0.0003015318798925152,-0.0006620776371875737,-0.0010545588486174679,-0.0015599715467013544,-0.0020638721961067667,-0.0025929488982815866,-0.003122602021704913,-0.0035823536474523603,-0.003966661791011282,-0.004318820214826705,-0.004638447468704932,-0.004964602748247606,-0.00534630541534083,-0.005752661796868305,-0.006129184518940599,-0.006451525615526138
-0.005872251714774511,-0.005592518553606268,-0.004261658288021651,-0.002193254884361836,-0.00017780308943594075,0.0014530918516738928,0.002732621923088744,0.0036848877478000814,0.004275547267408728,0.004558389837735917,0.004547259615298057,0.004357999970132218,0.004103131953368435,0.0037895110487057592,0.003545386294459292,0.00342635078383212,0.0033945714518679947,0.00331239401731455,0.0030309044556185473,0.0027604904923171246,0.002477803520874074,0.002067078280569716,0.001697016634670974,0.0014287451568177247,0.0012222878583391117,0.0010984292632715126,0.0010302042311931628,0.00101048272671621,0.0009628385450738245,0.0008907884544315486,0.0008241085439919244,0.0006606681371492623,0.00038527660750564045,8.912660791579542e-05,-0.00023537283255001007,-0.0005603158475970399,-0.0009492453464895088,-0.0012983074488202423,-0.0016173111027909936,-0.002093822778993293,-0.0025782779097591885,-0.0029591291191024853,-0.003308087947234179,-0.0036622764841513543,-0.003959949391574359,-0.004258975982374432,-0.0045917121416002874,-0.004942826012710548,-0.005302712015820496,-0.005659378098310296
-0.005477547773871785,-0.00535246535922779,-0.0044317346031843355,-0.00277465350307166,-0.000609106303388692,0.0012218670546562216,0.002473531182765533,0.0034898335980725033,0.0041410681213617405,0.0044255763814776,0.004485872425460993,0.00436749765212744,0.004157211479566258,0.003890286876010736,0.003572935498653386,0.0033118752270580123,0.003207195135286779,0.0031134099091224684,0.0029355339016533177,0.0026742808946463685,0.0023367233938774703,0.001942327049119765,0.0014726511208250563,0.001065239759520563,0.0007990410362516215,0.0006252261428606043,0.0005271041864829501,0.0005002030764595604,0.0005093606506026208,0.0004587823540654721,0.00045673555274231334,0.000466411851770831,0.00040179402235128637,0.0002172744302707339,-6.029202992290118e-05,-0.000297825269318924,-0.0006048399732727019,-0.0009427654127542453,-0.0012886493334010789,-0.0016762837605467568,-0.002050316778017069,-0.0024261114158934363,-0.0028026765867519,-0.0031953523058966616,-0.003584586288551717,-0.003944882975817564,-0.004274578080460988,-0.004556545427566018,-0.0048204233274861865,-0.00507804236170575
-0.007100230123543877,-0.006820697925580664,-0.005333649860966068,-0.002773066071433675,0.0003583896087347397,0.002929574298731469,0.0044173128015990454,0.005420629427071447,0.006082032765463094,0.006397022239137717,0.006369876363341255,0.006131747633301479,0.005835358766053528,0.005417225368263288,0.004960585312524223,0.0045483982634902005,0.004074056631718492,0.0035901955487762927,0.003172678074237386,0.002678597021438761,0.002150241545709934,0.0017179793868004206,0.0012582217892242128,0.000776769719083302,0.000438840105582209,0.00029701726426295587,0.00029167617046432375,0.0003117701144450094,0.0003299077210611621,0.000366036604245066,0.00037275630125816806,0.0003423101742416656,0.00024885459546563954,9.842178608610471e-05,-0.00015481296782472346,-0.0004930522298541092,-0.0008275795263600818,-0.0012283742350524722,-0.0017005782381313034,-0.0022288083958987106,-0.0027966614140455515,-0.0033414204282612575,-0.0038888832944406386,-0.004422632056208402,-0.004919374413518889,-0.005390943672124003,-0.005817766918250844,-0.006158939010895765,-0.006505580854891786,-0.006889498799941854
-0.006250192367728004,-0.0059656541248977206,-0.004654775315964838,-0.0024587702683864024,0.00015400328093391594,0.002223315572034086,0.003560476947368031,0.004320405519653457,0.004806264167043417,0.0050674088769352334,0.0050280047344463934,0.004861912504399992,0.004578169328943756,0.004158147246219642,0.003820761445331699,0.0035813922956260064,0.0034319840506983183,0.0032973206039667276,0.0030882108131200193,0.0028302489670806287,0.0024884148736764146,0.002036262428496245,0.0015511406540260478,0.0011986073099233348,0.0009622310000324622,0.0008089998532103439,0.0007805637229552716,0.000793790583959595,0.0007963517196423679,0.0008269052733501635,0.0008116075629418858,0.0006893971170451919,0.0005580290822959397,0.00029886437393795116,-0.00011651058027158541,-0.0005054117867393923,-0.0008734163942360847,-0.0012803121292450158,-0.0017389277328433682,-0.002175613223352116,-0.0025959691817854878,-0.002998153348623924,-0.003374244940334967,-0.003708749546387293,-0.004022470911015266,-0.004359334946198737,-0.00471175473444417,-0.0049905542805412425,-0.005277917782818917,-0.005608531020761509
-0.00480221447882615,-0.004468132668268516,-0.0034212952120759774,-0.0017924766407844302,1.3993965410266142e-05,0.0015329984327428856,0.002620758674471609,0.0033928674718206333,0.0038668187932313553,0.004002988655152004,0.003912073624447843,0.003778042969497472,0.0035906118152097153,0.0032886801998442015,0.003006795063807215,0.0028209581289569087,0.0026623914123017657,0.002518635722926191,0.002381084470285079,0.0021841718934308106,0.0019724659697039,0.001684938322343555,0.0012629257799602334,0.0009110222738114426,0.0006675097062426962,0.0005133442311661,0.00048642121063031935,0.0005023656395798579,0.00048145855735136963,0.00048615615237218275,0.0004897521299907718,0.0004549223042918972,0.00037768544789163166,0.000218254019899377,-3.11777552044407e-05,-0.00032146142996332703,-0.0006280853039151915,-0.0009303077229596095,-0.001249783234148574,-0.0016270442287793104,-0.002025606039266267,-0.0023724996271858776,-0.002700162012892044,-0.0030361054605657863,-0.003311721141522936,-0.003560999899568227,-0.0038520833884206616,-0.004196023911525214,-0.0044954904320436825,-0.004718527234644257
-0.00532279437946278,-0.005364361650166074,-0.005140891223913146,-0.004564702615046752,-0.0029067835326976343,-0.00019632073602157164,0.0024622818927543767,0.004985773638406904,0.006902711652773995,0.007961144963476257,0.00841739831956679,0.00851232773293995,0.008418430770369505,0.008171562786607552,0.007769056075941787,0.007284729494139041,0.006779171939696596,0.006182439324534923,0.005452291634299803,0.004710228672546546,0.003943922222008623,0.0031444546026112574,0.002314742960478851,0.0013869896217398661,0.0004539962156535791,-0.0003406902900654176,-0.0009632397082155339,-0.0014218929842742273,-0.0017489364478253811,-0.0019379777385702325,-0.001989374492346896,-0.0019710861871955155,-0.0019997863639448533,-0.0020299353852673936,-0.0020733224362861047,-0.0021495720886847195,-0.0022404954967676573,-0.002379370388144429,-0.002566060285619017,-0.0027743772604284104,-0.0030528569062013046,-0.003449503445219072,-0.0038538517619673717,-0.004240445391394533,-0.004633536650866398,-0.004938483245202649,-0.005169762595623765,-0.005364647742380694,-0.005511247930284168,-0.005606351785865158
-0.006467707869430755,-0.006402933836489199,-0.00489225967365602,-0.0021162022117108283,0.0015353721397493927,0.0045324447022204095,0.006509953652519626,0.007646048075269152,0.00811778585526729,0.008198385911590582,0.00811341416771993,0.00787460161706603,0.0075577036260539455,0.007184195102579683,0.00671198324746336,0.006223608937926263,0.005774202140081806,0.005286365433080358,0.004677548553697257,0.003889049828881696,0.0029572436806647355,0.0020325515994288226,0.00114912200953805,0.0003964376843836684,-0.00014529628674130507,-0.0004936649806944677,-0.0006699233779889156,-0.0007190472837800731,-0.0006665134459342018,-0.0005652546251611578,-0.0005604602833167117,-0.0006571810665966033,-0.0008706549651891843,-0.0011732802821545253,-0.0015641189004919104,-0.002046892324607513,-0.0025666636872593573,-0.0031126495587939984,-0.0036768428080598886,-0.004149452348210657,-0.004602875815401971,-0.005108047950544118,-0.005516369054052997,-0.0058078068463677576,-0.006055171992541042,-0.006217606495983604,-0.006308421618087047,-0.006393062889488979,-0.006449668469277451,-0.00647168778167404
-0.006829987397127302,-0.006938491905379135,-0.006183032765926968,-0.004478574002309171,-0.0013787323073121836,0.002255791178478947,0.004826038706512397,0.006399236748911849,0.007191942728280963,0.007648535968355598,0.007846430562918946,0.00777515634354965,0.007608179294664945,0.007402584616128893,0.007084338009364017,0.006602445407961251,0.0060274837182770335,0.0054823059168955385,0.00493813260433664,0.004359041366827877,0.0036925900539575875,0.002938457775978915,0.002103906779396503,0.0012101368751809781,0.00035828852163576313,-0.00034165450704648124,-0.0008725129997074722,-0.0012502121541889198,-0.0014610280800455182,-0.0015305820623743049,-0.0014347653761018987,-0.0012665051409200955,-0.0011723358310121508,-0.0011080174666862849,-0.0010479891665745949,-0.0010662386621794054,-0.0012022764561892252,-0.0014286191252584825,-0.0017498574466116017,-0.002177803871188962,-0.0026879990594533007,-0.0032448168429556447,-0.0037848671590632148,-0.004343810404428113,-0.004949013378567711,-0.00553246969510144,-0.005979753255456426,-0.006266539218123567,-0.006503536580372592,-0.006709344719088184
-0.00687681949222344,-0.006983346852234636,-0.006140565125120283,-0.004284615344963557,-0.0011799143448691543,0.0025326777006100744,0.005281382257461638,0.00690327309523481,0.007665582788052872,0.00795978214314198,0.008098919430937938,0.008113350551513215,0.007930939190784131,0.007633835606824732,0.007266193046413681,0.006772252148436955,0.006205466668890434,0.0056231490013980015,0.005036072117403732,0.004363655427326668,0.003637446554689622,0.002865195328044784,0.002018520447009049,0.0011281503158138099,0.0003286814229484784,-0.00032678739410359865,-0.0007788983514132679,-0.0011091310647769232,-0.00132426203488954,-0.0013519351868391753,-0.001278322078403944,-0.001219878800723424,-0.001187396821933914,-0.001175440387316553,-0.0012082873507187682,-0.001286820333435317,-0.0014471149217570015,-0.0017132106372723488,-0.002057058065372513,-0.002461349417801601,-0.002966383972475209,-0.0035620108708777423,-0.004143585328572359,-0.004688382086907512,-0.005233712713047829,-0.005673339459122284,-0.0060729456950264086,-0.006508903827022031,-0.006847690204352494,-0.007063010482260332
-0.007043981750181369,-0.00690605746800107,-0.0064404182336393195,-0.005463556007734412,-0.0035278069586940166,-0.0004536450168795126,0.0032510195083290693,0.00602440512332312,0.007584092266256422,0.008319191141326232,0.00866785526285722,0.008737997043043566,0.008603295888935129,0.008362239848201489,0.007950224140478723,0.00744045617245299,0.006861203318459455,0.006254423893031115,0.0056635575219507435,0.004988795062945128,0.004242853284442391,0.0033798431083564935,0.0024202060721704986,0.0014677580849326208,0.0006159922282824072,-8.05558863076954e-05,-0.000632592462627193,-0.0010206600132513504,-0.0011820784402584758,-0.0012089786160576577,-0.0011967440751241866,-0.0011575017878354946,-0.0011123551178697957,-0.0011397564561530485,-0.0013012537430698396,-0.0015274732666608931,-0.0017881820450856537,-0.00212754322223357,-0.0025704839215126007,-0.0030704832531290318,-0.0035828602851895918,-0.004144010324226903,-0.004737222539362219,-0.005290642513117687,-0.00575847763454619,-0.006163135312088766,-0.006495268879176926,-0.006744107478954342,-0.00696079125264896,-0.007154064845980819
-0.006728610773370103,-0.006612894256560793,-0.005303207747601733,-0.0030527140603674686,-0.00028268050813694213,0.0025087105633930734,0.004775595769415266,0.006253369503302924,0.006986945151457527,0.0072665132726063095,0.0072359648385632944,0.006988799486589775,0.006675024584171881,0.0062768737699873236,0.005839670494655773,0.0054052586351302796,0.0049623679783542315,0.004489724206237872,0.003903098595245852,0.00329281208618836,0.0027321303152379843,0.002275438100077519,0.0019335840218168616,0.0016377889804965596,0.0015014478733582479,0.0014236854036898386,0.0013446342202448514,0.0012891574577007694,0.0011407065679450586,0.0007907773733019346,0.0003855773311728833,5.028806171908476e-06,-0.0004574376079389617,-0.0009948467462368347,-0.0015288255200077553,-0.00210438666747269,-0.00266990650120792,-0.0032220241942654297,-0.0037360335866206858,-0.0042300253295955575,-0.004673796044053268,-0.0049941721840577515,-0.005212559048320775,-0.005372987678594534,-0.0056120838736993415,-0.005898978611724294,-0.006151618250994766,-0.006419158092703966,-0.006634093604170195,-0.006752640795089049
-0.006829156586456856,-0.006681849698865068,-0.005437395456045803,-0.0033905371984688836,-0.0010531426925027329,0.0009054274145536406,0.0025037087691326585,0.003794164447445995,0.00475778709416676,0.0053277509698543305,0.00568423234899494,0.005826437144224405,0.0057164717077754805,0.005551917445235625,0.005335612352293233,0.0049889556778242,0.0045878319678723575,0.004195014172778457,0.0037741525481823066,0.0032469176195502,0.0028498239746823713,0.0025225861045078666,0.0022713137340788477,0.002172349173358081,0.0020307651563331247,0.0019130147457896139,0.0018743835140477064,0.0018185003912903936,0.001729826535474732,0.001508534694844486,0.0011649211796695784,0.0007061237161996794,0.000292832514674742,-0.00017842387611047175,-0.0007527421845003086,-0.0013555746266362212,-0.0019124439900670763,-0.002446433905693224,-0.0028963618004530086,-0.003263525916211188,-0.003673613474685264,-0.004071733845907486,-0.004341685790434625,-0.004663695904453447,-0.00500323002063449,-0.0053273415074851956,-0.0056412077268122186,-0.005947288369393932,-0.006249739160938139,-0.006552954018051736
-0.004075690211860925,-0.0038558439725571367,-0.00318925807022518,-0.0020937379332454844,-0.0007564956724887424,0.0003835369766333698,0.0014299276353846996,0.0023297850278026196,0.0029956212492359283,0.0034225035363572966,0.003597274946190968,0.003513718269725201,0.003326731541863065,0.0031479897807635262,0.003003878550006609,0.002873476307349277,0.0026886606927027344,0.0024211532255203304,0.002070443682382134,0.0017406808399657609,0.0015033572109533814,0.0013134685673189721,0.0011846135017234125,0.0011084950875721782,0.0011028909039929088,0.0011003560933935364,0.0009989709987423356,0.0008605247584969038,0.0007653820981643748,0.0007651679603594954,0.0006544858522646446,0.0004589813419796816,0.0002381884614021413,-7.885364552865718e-05,-0.0003914354517524811,-0.0006717757786160496,-0.000947388905534758,-0.0012291048285954685,-0.0015505373755356096,-0.0017605120528049831,-0.0019719808086791,-0.0021990167855838825,-0.0023678718696319326,-0.0024894482319723155,-0.0026226016182108744,-0.002822111649626841,-0.0030532974389685984,-0.0032563024080012127,-0.0034928890618108194,-0.00381497603376195
-0.005510886700862012,-0.005270058387657527,-0.004196516659353647,-0.002565556052304517,-0.0007440684390074826,0.0008761390101900711,0.002101437247858403,0.003107460764988087,0.0039072188688367825,0.0043347503068105215,0.004465438933249023,0.004456042033896266,0.004477411372903165,0.004351286172798549,0.004106735656760086,0.0039042710909901546,0.0036492847713755676,0.003277412606472953,0.0028881328746448017,0.0025267784380784168,0.002225495176286827,0.0019401106098251106,0.001759182503230471,0.0016997831543005821,0.0017828439293711249,0.0017864926310565074,0.001663495604049729,0.0015765587066488892,0.001475394601723501,0.0012905538626107862,0.0010655743323777812,0.0007367924503466312,0.0003076706955206371,-0.00012625945341756292,-0.000530447640037023,-0.0009632781515833474,-0.0014321794809880391,-0.0019157703559962466,-0.002345459590012495,-0.0026487673500966706,-0.00291773161677789,-0.0031976647559065373,-0.003449987662520352,-0.003680179844001842,-0.003904645971304588,-0.004132198815056952,-0.004409861865062689,-0.004752728648191142,-0.005081751124700744,-0.005338731981461171
-0.006760011563630099,-0.006537714638276589,-0.005701717650891438,-0.004325391766183635,-0.002610374267101765,-0.0008539891413103697,0.0008342007337173529,0.0024157178972495858,0.0038405620557520996,0.004956260225625971,0.005673344948018601,0.006177383129307242,0.006451999452870774,0.006532223854624475,0.006460365208650036,0.006226573956114877,0.005842128282067425,0.0053288109069522666,0.004741737524840525,0.004060191831916173,0.003344524565463669,0.0026685284333111932,0.0020464048637383043,0.0014469105416274979,0.0009970005417835278,0.0007505087810227198,0.0006205049510872101,0.000511336216482825,0.0004562115199832635,0.0005129266097660147,0.0005190235749347592,0.0003655423725215675,0.00022546834335944455,2.6046192359265026e-05,-0.00030131453708051185,-0.0006594426328496055,-0.0010510660837685128,-0.0014667022623931138,-0.0018871220024596115,-0.002320116624372796,-0.002802259997558734,-0.0032992865647756033,-0.003756129737940982,-0.004181722000299223,-0.004625903591492231,-0.005055745946255459,-0.005490926105088402,-0.005916647151913681,-0.006288983029545866,-0.006602472380120156
-0.006167285309258559,-0.006032060413579168,-0.005581609893246745,-0.004795509381774553,-0.0036190153582185735,-0.0021749240487519994,-0.0006179319489005828,0.0008503891113303023,0.0021397302537094097,0.003244268020371239,0.004200337754841629,0.004938258178900847,0.005437827627853363,0.0057628800819885485,0.0058820269011338995,0.00582119995919453,0.005631992444916444,0.0053017927145317945,0.00480717845623656,0.004247442370145009,0.003639806965754334,0.002993483648786284,0.002407990571708279,0.0018932026810810879,0.0014109550049363271,0.0010098514395421097,0.0007685284339557895,0.0006526773138417305,0.0005791291496876187,0.0005008431500837377,0.0004597746686520462,0.0004128014839197711,0.00034176479904487003,0.00021744168434720772,5.260003141215226e-06,-0.0002729559867862021,-0.0005413187686925735,-0.0008676345922504552,-0.0012824385325017284,-0.0016452982924127398,-0.0020549356138628533,-0.0025252511609957784,-0.002973688646304562,-0.0034153685379108233,-0.0038493198532040334,-0.004328219105003312,-0.004831973633975475,-0.005296124949468399,-0.005700961870436996,-0.006039310831574487
-0.006654864816151658,-0.006489794125841555,-0.005869303180848691,-0.004832373342060184,-0.00342502474165251,-0.001800991710844,-0.00010814653826895933,0.0015145592729624087,0.0028910381216397654,0.004012146604060199,0.0048584657420120605,0.005457565833947712,0.005857481661699498,0.006031488280228718,0.0059510559390014515,0.005757325368661953,0.005532468947006837,0.005209097689178198,0.004737182130536085,0.0041836704141867045,0.003548293047716601,0.0029344172091185267,0.0024775022124863184,0.002122604503874032,0.0018345701779051322,0.001659123880709517,0.00153380276373957,0.0014720814881895691,0.0014200505561438692,0.0012940080385131795,0.0011444488933214144,0.0009682220989031331,0.0007707496866500756,0.0004671453168944755,0.0001399907672064334,-0.000197992528663999,-0.0006902089862732614,-0.001242923252568371,-0.0017486353977067277,-0.0022604501137106284,-0.0027697540575225906,-0.0032077870612448947,-0.003646232779420635,-0.004167042302514254,-0.004633375279934483,-0.005063504742078764,-0.005479591891679844,-0.005888284859522356,-0.006266869060406283,-0.0065929941156073115
-0.010212885871330535,-0.009917879501304017,-0.008743422416890061,-0.006722608505479975,-0.004160075711250409,-0.001484889443024476,0.0011222296685502843,0.003472752454280627,0.005417708146035904,0.0068156974699259045,0.007746140835341346,0.008424656765405021,0.008727575802741114,0.008719624808733685,0.008577056155395214,0.00829856863205777,0.0077261816413255096,0.007003837253164939,0.006261492697782307,0.00554001551504997,0.004946951732712246,0.00441480630727354,0.0040120671272605634,0.0037151858729427764,0.0034922640141796385,0.0033721626656708623,0.0032031611053328136,0.0029025093065024967,0.0025580165777160406,0.0021982235011315794,0.001674766901753774,0.0010421238495871752,0.0004005203466677664,-0.00023122508396695467,-0.0009208354170206079,-0.0016912208169466724,-0.002505864566183422,-0.0032600094648768106,-0.003959027539982993,-0.00457210645991714,-0.005135698518169002,-0.0057109748752398,-0.006212088783127468,-0.006684048127944315,-0.007159115301218448,-0.007629148268908622,-0.008104469075159338,-0.008537836894955762,-0.009023237830800385,-0.00958285479655893
-0.009999058375635961,-0.009802002235353168,-0.008840613112509312,-0.007125353789813169,-0.004832942776823538,-0.002345401138026596,0.00022872233513980008,0.002683717549826883,0.004660926162121811,0.00617968765877729,0.00732330445831178,0.008034548467500789,0.008462599477263343,0.008677548305235908,0.008675050968745286,0.008467534734428055,0.008092535295259147,0.007537630314054686,0.006852726057256067,0.00607804848591477,0.005301077907256574,0.00459801083702009,0.004035698814839823,0.003564155946390818,0.0031985593231620866,0.0029917726886120595,0.0028852155465967835,0.0027304517231268744,0.0024646817788636587,0.002186103639269348,0.0018631357006707859,0.0013582423209282525,0.0007651128363678724,0.00014444932139389874,-0.0006172869427250515,-0.001354461606580412,-0.0020622483716125745,-0.0028281713019186043,-0.0035769354222509923,-0.004186857454208745,-0.004799335182219753,-0.00540129838358798,-0.005941502649934992,-0.006525937472144439,-0.007089738689917677,-0.007528187543842053,-0.007998808940005275,-0.008498174843550178,-0.008950825966470044,-0.009399298767497247
-0.009698919311018872,-0.0096663567363021,-0.008786166916665566,-0.0070991183188110416,-0.00480938770750512,-0.002280689532709561,0.0003475329290082634,0.0027651122486248513,0.004726181252574068,0.00630540237535097,0.007456348414428335,0.00812177664616088,0.008539811946329252,0.008751550908091885,0.008789547475998477,0.008648021746289727,0.008292447516383708,0.007658584072240261,0.006909386893005123,0.006129207437347021,0.005239740185527405,0.004476212478643559,0.003920708317028167,0.003439039866857196,0.003070639042386824,0.0028663617145312436,0.002666094639297,0.0024550118863345335,0.002244524833326939,0.0020190338465766854,0.0016883907008388124,0.0012511237872488304,0.0006855616341567165,4.817126237336565e-05,-0.0005987380421199846,-0.001310396703585851,-0.002078896395399926,-0.00284311647266714,-0.0035583764849169627,-0.004194154035848465,-0.004773025181093243,-0.005409026952342471,-0.005978638955931996,-0.006483906747071719,-0.0069376470479213335,-0.007385837977678518,-0.007854109529125483,-0.008325707677700106,-0.008808152978994668,-0.009293123596402992
-0.009993182563491222,-0.00960366733955879,-0.008357247638043162,-0.00633097928040285,-0.0037731659673127327,-0.0011498454198761842,0.001408353609129733,0.0037227813002864993,0.005679789269217305,0.007080682421156932,0.007944854811738242,0.008524716551882533,0.008814355772158828,0.008948270627070943,0.008870176726303048,0.008581334847622742,0.008093470175739649,0.0074522477357446245,0.006600879311314718,0.005821300265155202,0.0051396704858673635,0.004496582285753147,0.0039988951132032356,0.0036293268495795105,0.003436475805174412,0.003322867853844818,0.003203186417057471,0.002978143755471299,0.002605138424781839,0.002248826479468545,0.0017913891157194518,0.0012197614807100215,0.0005660566592053856,-0.0002084223765573471,-0.001039047985158073,-0.00180445387322535,-0.0026352268498548524,-0.003412971578072814,-0.00409240308305514,-0.00475151751978282,-0.005342658997189162,-0.0058688193519573694,-0.006364596397667832,-0.006879543033966004,-0.0074141388020932605,-0.00791082004810795,-0.008450044734711133,-0.0089312851745929,-0.009352425377825966,-0.009784118128804984
-0.010073736226355639,-0.00967079736261558,-0.008230905078340667,-0.006042967172063959,-0.0034278158491846734,-0.0006637259816956714,0.0019234920506793769,0.004094330516721466,0.00585542669169154,0.007174211110375297,0.008128646042624565,0.008724466157916562,0.009088337448726152,0.009189633256232458,0.008948933646401914,0.008625893895588096,0.008168663409119838,0.0075306885078555,0.0068222907205305675,0.006105773144687986,0.005429241365297263,0.004787228038321524,0.0042755737112780716,0.0038443382581752313,0.0034270083981186644,0.003101504108848004,0.0028472765261802965,0.002523438168266106,0.0021383307404272507,0.0016604108491107793,0.0012019288567738573,0.0006242085355605456,-2.816504196972482e-05,-0.0006706154444317631,-0.0012701451184637153,-0.0019535307339716597,-0.002628823526021154,-0.003292395508446913,-0.0039458055565859875,-0.004534129648252809,-0.005111045832387725,-0.005700087584732175,-0.006246611132195612,-0.006819432036805515,-0.00730449752164727,-0.007822714553750243,-0.008350354555390467,-0.008866857984434774,-0.0093602619380351,-0.009848220899963765
-0.00837555358102646,-0.00792727132134793,-0.00689512813985006,-0.00533263839756426,-0.0034522175309875448,-0.0013904771712260737,0.0007119209467536458,0.0026997984437115616,0.004452466444569851,0.005863326718393286,0.006923823573881447,0.007619475230921882,0.008046660913761966,0.008317365647550664,0.008376677550940756,0.008210749567986014,0.007883009107595993,0.0073535596258923665,0.006651345040738295,0.005872685741228136,0.004986469557184973,0.004061757173121012,0.003185536199982414,0.002346699667987329,0.0016165389028254648,0.00099187693334785,0.0004542761309295788,0.0001601525947802634,-1.4868796535007764e-05,-0.0002354939731515424,-0.00034684330613756083,-0.0003928933734067172,-0.0005312540832013313,-0.0007208219417909879,-0.0009277332744550816,-0.001156710537558996,-0.0014450935496914388,-0.001804594411334901,-0.002262727853651906,-0.002788699190898694,-0.003277923842968033,-0.003767310959163447,-0.00431020669347415,-0.004895851400830974,-0.005499755933829972,-0.006094315120556637,-0.006649528219391699,-0.007164617138470056,-0.00762843090599463,-0.00803190601228539
-0.009393278048405737,-0.008813500541219231,-0.007319325641754343,-0.005187279750383482,-0.0027862406511761878,-0.00044034646099372165,0.0017621788786651806,0.0036767112698720497,0.005109150931521086,0.0062135169338325535,0.007071731006615132,0.007586825794443593,0.007939333394741625,0.008107370089390805,0.00796240884801942,0.0076350245870425385,0.007123602351173164,0.006500643530471399,0.005794109196643691,0.005098454900197287,0.004502300681271987,0.003982121577288415,0.003640259410309371,0.0034704637486141616,0.00331479543887873,0.003153469593069087,0.002980844528577378,0.0027483152207056203,0.0024454419959706823,0.0020809192107703197,0.0014736320400101307,0.0008515393142735023,0.0003142906269600231,-0.0003510464175526504,-0.0010242764885249,-0.0017070170686659639,-0.002394368612807055,-0.0030372377380603367,-0.003671225079666344,-0.004268759971484133,-0.004849081357752924,-0.00534773946401137,-0.0058450750462842385,-0.006306905527138131,-0.006805391530358673,-0.007292076248735539,-0.007788480693635263,-0.008305997800173145,-0.008774619906429373,-0.009202940831421485
-0.009790574415281594,-0.00926279122046414,-0.0078028096222392245,-0.005601357023026039,-0.00300406488434519,-0.0005135556837393815,0.0017827697984907289,0.003859573626068901,0.00560525374960856,0.006785179059527044,0.0076208763724264885,0.00816408209832179,0.008398917128716338,0.008496214980900472,0.00844641615256593,0.008152690389159828,0.007569503562937523,0.006886808122324556,0.006063828697772025,0.005325302134033767,0.004629556929165777,0.004050326823484518,0.0037077760110398117,0.003492092695622677,0.0034054278004006762,0.0033195628517293393,0.003211980829523161,0.00308786368415031,0.0027644035932981085,0.002348015832013841,0.0018902546162412616,0.001309215875495626,0.0005997369771846837,-0.00011595570269965936,-0.0009089945684872692,-0.0016868253099341251,-0.0024016974896907332,-0.003108146300651142,-0.003822756226126464,-0.004514448383570963,-0.005132108982432005,-0.005648372774222903,-0.006149927616768498,-0.006643085562588762,-0.007060272389852145,-0.007474868509725491,-0.007929835132385469,-0.008380615685428245,-0.00883584158354059,-0.009284706048641489
-0.010486923049334311,-0.009934007486792188,-0.008328946219230384,-0.005772861016526263,-0.002729913694947686,0.0002224171542358247,0.002823730405646291,0.0049612700512523,0.006619272528197187,0.007740489056443997,0.008466014601329558,0.00871856441025527,0.008803385672811304,0.008766925581788768,0.008474989896356516,0.007858593343341932,0.007134505211282336,0.00628541088911803,0.005494862179502602,0.004829885528519184,0.004395839476579784,0.004161463909169288,0.003979069145309576,0.003820810157620748,0.003651437817138939,0.0034803509627072,0.0033061120666824963,0.0030344028854161426,0.002566891295011742,0.0019171308265411116,0.0012542971759439254,0.0005465197108254694,-0.0001792143436197692,-0.0009555922658619148,-0.001678582461169494,-0.0023697598898735506,-0.003105685646207106,-0.0037987404482766537,-0.004440322398325857,-0.0049427540343816995,-0.005455209783062812,-0.00599773444057713,-0.006449695240210848,-0.006915622744286222,-0.007400490551529965,-0.00786086173862438,-0.008330177464124197,-0.008895961295089235,-0.009409016232031036,-0.009845856849382531
-0.0096047775459294,-0.009147599241326538,-0.007791777789214319,-0.00559377524904681,-0.0029951286556760904,-0.0003989227181324783,0.0021150617962436007,0.0042399827531022505,0.005899777067400195,0.007100599594436155,0.00787585048284859,0.008407444884766547,0.00862656369866252,0.00857290497358829,0.008387048421493962,0.008036225679544363,0.007537040115573877,0.0068746899035706825,0.006073903333199663,0.005224529886939043,0.0045445550723463134,0.0040649928660372965,0.0036228570489881514,0.003270209839519727,0.003036058482704807,0.002904092366094366,0.002801966496705702,0.0025147766891288116,0.002221903042101872,0.0019172819987190552,0.0014518092763083715,0.0008590677805190175,0.00023099619359954188,-0.0004944196515226786,-0.0012281029650126139,-0.0019497855134834458,-0.0026390860348315193,-0.0033455706619885048,-0.004022144639060443,-0.004607400165484455,-0.005102162907138243,-0.005608529283363445,-0.006184712248484799,-0.006672383741975703,-0.007149130163450727,-0.007690751384600071,-0.008166044050360843,-0.0085763642069845,-0.00901651250642218,-0.009438852734408443
-0.009584519675392936,-0.009302321201998533,-0.008183577338382046,-0.006137128401530598,-0.0035173897341221312,-0.0009029118851805006,0.0015388940432622116,0.0037237524112662722,0.00555567208691409,0.006836862865763317,0.007604529835622852,0.008152681282581637,0.008443499315307253,0.008477936436136249,0.008342944321535631,0.008016161579832402,0.007483766454186619,0.006822864097121813,0.006115845958882081,0.00533218733018804,0.004565839969098749,0.003997649841540473,0.0036148357340627666,0.0033619963811264498,0.003290653826531866,0.0031995782176764812,0.0030133064916070705,0.0027843561769061624,0.002483726220101964,0.002132725557970554,0.0016993634888908336,0.0011392685608668724,0.0004070229672583963,-0.0002492976398257059,-0.0009622542152717994,-0.0018167640850135249,-0.002557250445492134,-0.003278613812232352,-0.0038892436823663125,-0.004436444914808541,-0.004999450216394556,-0.005544623774957166,-0.006080755845465145,-0.006525157080557601,-0.006963878887165165,-0.007431443115187529,-0.007912399405418002,-0.008358444646160326,-0.008800481253008662,-0.00923137195845795
-0.008795197256801404,-0.008703002761708243,-0.008005934734936212,-0.006616664150207445,-0.00453221360015345,-0.0023323641820083172,-0.00020157870973361528,0.0018458088748468568,0.0036244558897025386,0.005074543387146817,0.006167484817480293,0.006941147963072089,0.00749291936789627,0.007799896573146908,0.00796800103471244,0.007977558775075052,0.007799000042438896,0.007416317232758404,0.006867714944124134,0.0060984043071897675,0.00528518753896241,0.00454828271265367,0.003823090241066877,0.0031829540327200333,0.0027756706411118806,0.0024136107576823848,0.002126568845407997,0.001997470421274618,0.001863480445516175,0.0015799237215007803,0.0012883342503867933,0.001072001585966046,0.0006390816244792388,0.00013870121936434394,-0.0003981555496173839,-0.0009529986747179387,-0.0015296034702646706,-0.0021702504269566015,-0.0028246855083537137,-0.003473330120810364,-0.004037105658489975,-0.004607321758254561,-0.005156966996926287,-0.005693180252955564,-0.006292372160104776,-0.0068091764552044385,-0.00722655521765013,-0.007607129877492243,-0.008006297573131847,-0.008452735452296693
-0.008758294374327099,-0.008305614196868072,-0.00708711079809954,-0.005232920816125983,-0.0030032984631400096,-0.000762874224280067,0.0013233079084416614,0.003163672299605643,0.004708038944896574,0.005896124135775336,0.006802965183772028,0.0073501074973178464,0.007634590589051397,0.007858007412044848,0.0079809690143005,0.007834128768194329,0.007411406375297266,0.006875118600700452,0.006167988664015174,0.005368617434693389,0.004669861526867045,0.003995364776767973,0.003430348507071644,0.003111969477366941,0.0029006701036360543,0.0027183152167139317,0.0025824297883388202,0.002436180591978061,0.0022708833627000215,0.0020074305417664704,0.0016011141029567979,0.0011762253774804444,0.0006891369935505966,4.810415873419254e-05,-0.0006643442744141938,-0.0013687148519903208,-0.002089966695513541,-0.0027759889753477926,-0.0034210807337879635,-0.004001385253617992,-0.004548367992162151,-0.005118773133624934,-0.005681892342027661,-0.006093714803056209,-0.006517289669311051,-0.007032132819680461,-0.00747731503702144,-0.007908850804149487,-0.008327380212208389,-0.008727915636620618
-0.008842247032968587,-0.008621982708381748,-0.007730693690443015,-0.006220301778194362,-0.004218749280183438,-0.002114140799711433,-2.7923538657981446e-05,0.0019295186835006993,0.003591589313935844,0.004969327709069055,0.006150860304606945,0.007004776747982497,0.0075213017482314475,0.00782425800604397,0.007906262351777077,0.00788652336975931,0.007750447588700629,0.007407463467913697,0.0068307569878704195,0.00612238639017378,0.005338609919823642,0.004532981529124507,0.0038554495947024465,0.0033318649543951167,0.002909334226671735,0.0025726833994682043,0.00233982550461892,0.0022033590554798883,0.002052825084405797,0.0018700707376690222,0.0016132150058411035,0.001263992185455903,0.0008538582142042165,0.0003500384383459728,-0.0002860941583360633,-0.0009086852329953509,-0.0015244603478658935,-0.0021582607840505627,-0.002789158550652077,-0.003431446243368876,-0.004037622580277373,-0.0046122936678524035,-0.005167874310418566,-0.00567859427077856,-0.006175640607427948,-0.006668144957754798,-0.007179769907394539,-0.007630458009338039,-0.008070396568958072,-0.008524782392098803
-0.008601292224262157,-0.008391135091878336,-0.00745104607823371,-0.005879660020948632,-0.0038476057407079954,-0.0016521317350922289,0.0005547976415554107,0.0025942215421220806,0.004228283833953119,0.0055747614069670175,0.006635716098661396,0.007377052306982354,0.007799298614152223,0.007981892695238423,0.008080457297405365,0.008035548818818702,0.0077776921806925635,0.00730247423027848,0.00674364119525009,0.00603251963885146,0.005218591308701619,0.00445823127637709,0.0037553032009551386,0.003158334761142291,0.002717835736290857,0.002441097195912638,0.0022719354650932617,0.0020808212686527763,0.0018434370667221214,0.0016124201210457548,0.0013744578867264626,0.0010411184922410584,0.0005448295624340972,1.9865126189383797e-06,-0.000541478718963837,-0.0010740436360908018,-0.001721752785837763,-0.0024045194830383276,-0.0030387448936841353,-0.0037617307285066084,-0.004376911758969063,-0.004851881282186397,-0.005312117832401279,-0.005804653061035637,-0.006294823107964526,-0.006759692657908448,-0.007252225544390767,-0.007723410499199511,-0.008134337001985802,-0.008476922306921559
-0.0057317983526757686,-0.005500074566760669,-0.0049040814091800946,-0.003975001320524066,-0.002788921932079408,-0.001456336902805578,-7.531382749147817e-05,0.0012307994965056464,0.0023556943739565825,0.003311593267523874,0.004121085106232946,0.004677413527905289,0.005020659813892113,0.005236865099870859,0.005301755548861493,0.0052372050595733705,0.00507942403218988,0.004866351744699951,0.004562773133233719,0.004114672632206172,0.0036045105842149087,0.0030626947310971957,0.002523192423205462,0.0020364080999156473,0.001633184859051722,0.0013571854845256938,0.0011982011918525782,0.0010287595930248857,0.0008508466850053069,0.0007513519122455346,0.0006437237491978085,0.0005147341613348701,0.0003864094583923163,0.00017774105180899856,-0.00014600905365918393,-0.00047942220835907236,-0.0008149303871603554,-0.0011596073729130286,-0.001501707021419894,-0.0019189752532785761,-0.002390933160793808,-0.0028141857826355725,-0.0032274062393618666,-0.0036526683685699146,-0.004050894152163297,-0.004484618985161349,-0.004937519900262086,-0.0053153462433377175,-0.005664634643164388,-0.0060064624687576375
-0.00820940095154903,-0.007876734153222886,-0.006921638892898806,-0.005391293225566337,-0.003434384144351246,-0.0013403557960272017,0.0007074683511652031,0.002559964783577451,0.004143853514318953,0.005381473585710679,0.006273085976003805,0.006868024908519914,0.0071732209156907005,0.007317199045282778,0.007312874301848925,0.007211917256096961,0.006997445535549447,0.00655699548830852,0.005942671374665648,0.00521721445008105,0.004547051105576757,0.003936817382913566,0.003268504659248425,0.002897442807627857,0.0026373951960899575,0.0022753666365975134,0.002129406541969219,0.0020602156582689916,0.0019133377919826108,0.001695932512392588,0.0014286560901208094,0.0010681286327845372,0.0006165199656154634,7.08210687622682e-05,-0.000464549074922111,-0.000980349580760682,-0.00153601632844597,-0.0021502809181243804,-0.002781080385045169,-0.003365420016337454,-0.003893494648402366,-0.0044232845818423586,-0.0049165407407001545,-0.005468192976149812,-0.005959057182903642,-0.006403769547343818,-0.006829541653026615,-0.007222879348447274,-0.007594047081713351,-0.007923854410373802
-0.008233241236757394,-0.008207607297092467,-0.007698132327249871,-0.006502645129823256,-0.004589757814178219,-0.002458646990980311,-0.000315321563908527,0.0016758441048916883,0.0034498037109754118,0.004860885445946181,0.005874936071808545,0.006611958390453326,0.007068966877473303,0.007300039747521092,0.007370235505491868,0.0072683514974492824,0.0070340943070870705,0.006601422262074304,0.005985901339696835,0.00525360413006152,0.004575314870608453,0.003955247790196369,0.0032893080569910303,0.0027729261512517912,0.0024466505720350485,0.002204289480777782,0.002079467633257052,0.0020679797249969394,0.002004391859137166,0.0017898144390932572,0.0015125577980018743,0.0011438222001782113,0.0007847917180871369,0.000408027171541916,-7.22901850262291e-05,-0.0006878445034467956,-0.0013378468032248746,-0.0019916957132188606,-0.002628444913916496,-0.003183440286743686,-0.003680390143751351,-0.0041717665409936175,-0.004720127411648423,-0.005262857253345629,-0.005776598260457934,-0.006192407594275965,-0.006598541254024172,-0.007053683526361702,-0.00750130833179583,-0.007895943244375824
-0.008575590570212238,-0.008430120579643388,-0.0074310284815569064,-0.005708177626481752,-0.003524042383300676,-0.0012752595952090571,0.0009207482411911969,0.0028469645011689497,0.0044329290577028516,0.00576018566415097,0.006677061397742497,0.00725849389961569,0.007566595803441561,0.007674151410724547,0.007730047332536935,0.007642458031771267,0.007347256185927124,0.006837552840072131,0.006267097805813182,0.005634760924435956,0.004846655108524094,0.004054503437213511,0.003394023842986967,0.002866869757919842,0.0023919948447058133,0.002077794784973403,0.00197247800041569,0.0018220784514185935,0.0016588251664990665,0.0015160197606392998,0.0013322474007268757,0.0010718859318389236,0.000689849787759907,0.00018383301929649387,-0.0004064826404760265,-0.0009652302352136566,-0.0015706895620751049,-0.0021481704386327283,-0.0027781052824674872,-0.003421000104620728,-0.004039519962904608,-0.004569601780184248,-0.00504678120294406,-0.005552138470283926,-0.006106310898948557,-0.006658063205620559,-0.007147380774802167,-0.007572331554373803,-0.007955500329823577,-0.00831045104522335
-0.00862414783504044,-0.00848072325592337,-0.0076526005799978005,-0.00612953525843549,-0.003990391246089604,-0.0017335305871055882,0.0004693873294344,0.0025108899039533927,0.004266173879646215,0.005640002450170567,0.006614689306862638,0.0072785229397098776,0.0076657771149732466,0.007818937374270543,0.007827758568586285,0.007710659684171323,0.007436604604931706,0.006936890071653748,0.006300134341021199,0.005619813489687484,0.004854951201149004,0.00402675208782261,0.0033440868442130922,0.002802575845559324,0.002353731009270055,0.002050534689429775,0.0019218808556641185,0.001840777852170073,0.0017464716052241654,0.0015302594352805403,0.0012571942154220837,0.0009234950480638581,0.00044157076339488427,-2.6581157306694883e-05,-0.0005525198640627521,-0.0012403347635571084,-0.0018986815077074385,-0.0024863429378589818,-0.0030801009386243806,-0.003640347828820038,-0.004246551173782624,-0.004795043477920128,-0.005243767594761778,-0.005723477765712644,-0.006199130627250202,-0.00668725367681681,-0.0070572175082766735,-0.007487552042026778,-0.007919431815749459,-0.008224587079369673
-0.008359834908164913,-0.00813716164532771,-0.0072565940372641274,-0.005744902819770867,-0.0037092570203214686,-0.001529872603284369,0.0005548998355982715,0.0024654672312233133,0.004108552109282749,0.005383448298869356,0.006359834872444517,0.007088259547297475,0.007473529957630648,0.0075965756785375815,0.007625783439054086,0.007497829790335789,0.007204676186198106,0.006724748745114896,0.0061008167429957615,0.005431620350682267,0.0047039789962274965,0.003889294681126097,0.003097135003678109,0.0023865553378865823,0.0018674515369517639,0.0015155281267553715,0.0013248182502494546,0.0012112485786199027,0.0010789374926158377,0.0009686319714342709,0.0008422338522857689,0.0006726353891618088,0.00041730699681281035,6.373224240742141e-05,-0.0003527973068476938,-0.0008853819979300085,-0.0014262529597557697,-0.001930237866067406,-0.002488685058190767,-0.003119678550447309,-0.0037400027717088974,-0.0042402249195486975,-0.004760613593312387,-0.0053434961259220355,-0.005918890485291742,-0.006449860028930185,-0.006895499554240556,-0.007323131312132458,-0.007738873249035392,-0.008135026438879495
-0.008575608754285669,-0.00851613055241721,-0.0079420601627614,-0.006763955545620569,-0.0048534142872425304,-0.0026315480353218583,-0.00035599182511956116,0.0018026648904814271,0.0036280723818896176,0.005109205151247927,0.00630346426961183,0.0071578287145385635,0.007656839628976876,0.007904911890293357,0.008032469635683576,0.007985275770696125,0.00774297221878997,0.007363245427425105,0.006840840973554802,0.006082246038302721,0.0052521134338774055,0.004431935597958972,0.0035989781868790453,0.002828009121093054,0.002207592738203685,0.0017861882172380485,0.00154900396270666,0.001379180343198198,0.0012184353721636202,0.001122917335554283,0.0009959993533413414,0.0008040119782662268,0.0005478616534274306,0.00022745107846071453,-0.00021078092761071384,-0.0006698073319017165,-0.0011404503960973352,-0.0017467025403408033,-0.002400009115712012,-0.0029566728755259313,-0.003509562565751985,-0.004131082269611568,-0.004724132454722066,-0.0052555794356688775,-0.005802653354794384,-0.006328155081933358,-0.0068110334646412,-0.007232934462424628,-0.007663757116265393,-0.008152781964446612
-0.007688735509983907,-0.007483754972819062,-0.006620833473719241,-0.0051681457901057975,-0.003339126739759137,-0.0013446921247109427,0.0006302090355801272,0.0024113629345682225,0.003988687924973849,0.00532921678030155,0.006337857501686377,0.007035301083962328,0.007475063913105826,0.007672816765825027,0.007655780970321028,0.00751279839025302,0.007230286573896058,0.006770008428349253,0.006139293956431693,0.005372062862642071,0.004493404911867123,0.003638474096391269,0.0028214308258534796,0.002078921377810136,0.0015066263242694289,0.0010509892785586458,0.000664311137366739,0.0004231000249055,0.0002946787200061336,0.00021841979026759444,0.00018467619802574976,0.00010597248399128239,-4.5852176065011746e-05,-0.00023421340748501488,-0.00048673759805191685,-0.000793118655858957,-0.0011363447813268928,-0.0015350546273029334,-0.001990377025282071,-0.002524133660349029,-0.003082760942946238,-0.00365113524139614,-0.004206463015734245,-0.00474750845141905,-0.005292234682155451,-0.005843797098084548,-0.006344533236228274,-0.006722604998181889,-0.007091066864775596,-0.007483432859797643
-0.008266028326774233,-0.008074419140486722,-0.007126509749470079,-0.0055045092941610405,-0.0033966090612330565,-0.0011949372103782795,0.0009208961969896427,0.002864468858680869,0.00439582395797509,0.0056061183660327165,0.006656539446310919,0.007376836086461664,0.007746317493503217,0.007982674461936713,0.008042449987656197,0.007856350849449498,0.007502202009684643,0.007004235317244578,0.0063578892269109425,0.005564563715421219,0.004722659134104382,0.003919574516868658,0.003195136380077889,0.0026293044153720122,0.0021836007888728598,0.0018038318088284915,0.0015424804883187168,0.0013544292159612357,0.0011971724560945875,0.0010685552906725833,0.0008989853328265456,0.0006706440664350646,0.00039250525582442346,-2.009162068455154e-05,-0.0005164984880909836,-0.0010454164771547326,-0.0015879237643297711,-0.0021259618369866016,-0.002659803456717348,-0.0031990110785513047,-0.003759488429910308,-0.004321121267003481,-0.004870684969008697,-0.005411891686622045,-0.005959605637158289,-0.006447992723300445,-0.006870789262969482,-0.0073599343587912635,-0.007798041699615658,-0.008114738950225877
-0.008911486878713775,-0.008588664550397293,-0.007630064451530394,-0.005990607787891051,-0.0036922850550431528,-0.001411489621214072,0.0006941669678747751,0.002651604254950324,0.004359241840785896,0.005703129635278836,0.006687486515838581,0.007366545625100413,0.00778617780568744,0.007999975873251476,0.008016602123159161,0.0077880553308171535,0.0074859414859141035,0.007057380344741569,0.006377013917440699,0.005627574279977151,0.004793841105943971,0.003927111550391724,0.0032051368206608586,0.002579903529035194,0.001966548530777549,0.00152930883597033,0.0013293951903870702,0.0012066580345032644,0.0010815159991963749,0.0009452154162340068,0.0008017278575045923,0.0005985925030486684,0.0002944629163347299,-4.420164572073578e-05,-0.0004697092915507889,-0.0010174783685681231,-0.0016507030953884232,-0.0022232522169723865,-0.0027174932850149323,-0.0032527851424579667,-0.00389376595440166,-0.004449144434244556,-0.00490520651666604,-0.005434954891028357,-0.0060651848622165746,-0.006651258325753845,-0.007117541204126514,-0.007568453234529921,-0.0080012651173775,-0.008383205938729588
-0.008760859350473927,-0.00849479936107913,-0.007503239142102461,-0.0058260933701433,-0.003652036142152379,-0.0013316664237925271,0.0009967639682795816,0.0030174674884250996,0.004671005573210288,0.006025576844351616,0.006988552063935091,0.007683087720645687,0.00812117436184183,0.008268198210953082,0.008217911758259314,0.008083241130555644,0.007798124815668939,0.007263016099900613,0.006579835844734455,0.005788977411065066,0.004987734774826702,0.004157861487632655,0.003455739517994289,0.002881328802695396,0.0024443006462724743,0.0021689726614072748,0.0019674199327143777,0.0017945319113502126,0.001635276486319629,0.0014325808108732324,0.0012536878135380638,0.0010089568215037466,0.0005491451773301588,-5.292003182909982e-06,-0.0005157110640851879,-0.0010618354812749556,-0.0016995690183717303,-0.002365690883325301,-0.0029445400855695318,-0.003569619134121048,-0.0041942730575199125,-0.004758338210159853,-0.00525000483217711,-0.005820410234971958,-0.00637076427057276,-0.006807908470052468,-0.00727617628624855,-0.0077177175605253195,-0.008117760230686482,-0.008503053013177681
-0.008902445138260728,-0.008645316542329643,-0.007737164293763951,-0.006137348079171036,-0.0038471010227408902,-0.001456611821222521,0.0007916593474509032,0.002803061273786178,0.004459064509773103,0.005803464188607237,0.006810537434763497,0.007458395166237429,0.007853789691981836,0.00800463513402123,0.007951539132272685,0.007756467101624097,0.007453640575017875,0.0069713618906460635,0.006359928664346118,0.0056173732187249055,0.00471041871189481,0.0038549646582237405,0.003169706034755855,0.0026464702206579678,0.0022142304285724633,0.0018971506118531292,0.001656612107377626,0.0015059585312850148,0.0014424356469798737,0.0013143590273498242,0.0010710491859995282,0.0007986925154406376,0.0004239944928127866,-2.6619794532141818e-05,-0.0004756313043035424,-0.0010489498555971062,-0.0017017268610007585,-0.002313157405867062,-0.002907185240514617,-0.00350428819769089,-0.004109607603188694,-0.00463706575054009,-0.005199019976892636,-0.005816640484550331,-0.006298417337442833,-0.00669733338899659,-0.007115539268665104,-0.007596145073312503,-0.008039479969313437,-0.008380699290091172
-0.008594807159633663,-0.008463154697627758,-0.007631416687258437,-0.00607300693499056,-0.0038751613992215944,-0.001562119120866874,0.0006571167504517389,0.0026756969560134364,0.004385422357693548,0.005791426327577216,0.006832224661934003,0.007537433314469211,0.007935708653285356,0.008070439032326317,0.008023244149826103,0.007865350364496456,0.007589843802436118,0.007100177846834012,0.006376979822617898,0.00556629764467011,0.004745486301725273,0.003942298656619733,0.0033337579273526132,0.0028501601780968927,0.0023962449134697925,0.00211288148189411,0.0019502987742174537,0.0017998893948255154,0.0016602983428635764,0.001487109612304835,0.001300680733899668,0.0010548669247821356,0.0006106620814044309,7.260402347056257e-05,-0.0005119855645904861,-0.0011253146175511214,-0.0017373645197709862,-0.0022989516169699886,-0.002890534236067743,-0.0035435713492579387,-0.004144072636603505,-0.0047243461897055,-0.005305540927603606,-0.0057767599184469585,-0.006225753162075151,-0.006671422793804828,-0.007076448704704264,-0.007582114279308825,-0.008066269034795102,-0.008441367847807654
-0.008716807919995672,-0.00872801860230988,-0.008041608616640241,-0.006614954185345851,-0.004478739700138612,-0.00215942811096362,7.618699919209565e-05,0.0020912234928105317,0.003873178262804621,0.005312777934573951,0.006366097106921924,0.007116875439199565,0.007622406301115584,0.007886094055150578,0.008006601210669564,0.007977210183522526,0.007681884026600296,0.007141790655370184,0.006498665894894307,0.005828057803288296,0.0050233685795274645,0.0042556916196832325,0.003634049779334183,0.003044683145188548,0.0025401865125761745,0.0023238860361389124,0.0021938507023154265,0.0019497839309205844,0.001763110265683093,0.0016065146692354326,0.0014012943036685749,0.0011182897570969834,0.000750063257242636,0.0002980323682384748,-0.00026071987941455113,-0.0008834001269781479,-0.0015210348408205353,-0.0021449648214778654,-0.0027396060352705195,-0.0033500588678312218,-0.003996823526554592,-0.004607228947203566,-0.005205772887039205,-0.0056678655543000046,-0.006154871917811203,-0.006691781198491999,-0.007162274327574353,-0.007581567545408103,-0.007971847099047937,-0.008347013999857374
-0.008480669258205672,-0.008118755445249745,-0.007007892858086418,-0.005222444652738483,-0.0030427231364655175,-0.000821308512696512,0.0013382973351062785,0.0032979479951507117,0.004839076510894637,0.006078641009018855,0.006963504310113028,0.007554840611049879,0.007899772722617824,0.007993124593160985,0.007932859666403884,0.007736564688983409,0.007433114435727396,0.006986976872903771,0.00635955163645609,0.0055499166249298616,0.004691108114201367,0.003908850970111093,0.0032539142612695244,0.002726360127612492,0.0023368030233584932,0.002102848702027791,0.0019242036810163342,0.0017453758691641508,0.0015407505376889342,0.0013130252877435761,0.0011076991577449358,0.0007551105360739154,0.0003211859066452091,-0.00012830912393705415,-0.0006490708849592249,-0.0012232284789188944,-0.0018742980360913,-0.0024875106630697042,-0.0030027689797907614,-0.0035465971683103594,-0.004128603040419082,-0.004740246064402735,-0.00531144870608471,-0.005792543356834258,-0.006261131710562033,-0.006711147300328585,-0.007141077759756831,-0.007574440364536738,-0.007962360973528516,-0.008288754723524413
-0.008633568846027909,-0.008352913765946313,-0.007378940232697914,-0.005778126645425051,-0.003679190606384985,-0.0013755910725510398,0.00085570681035103,0.0028524137633121984,0.004534005661255771,0.005845396125149984,0.006810838585477595,0.007406375462804654,0.007741444030486775,0.00796572583751021,0.00802089683254779,0.007872433875948204,0.007550300652322872,0.007034431216823798,0.0063682629259005875,0.00566726518256927,0.004891582272652519,0.004072599222252504,0.0034131104948597795,0.0028240662532255114,0.0023810281180943116,0.002083600872436514,0.0018652894262596851,0.001720559064801386,0.0015317265337672337,0.001268737824200566,0.0009976544814335139,0.0006936528582917985,0.0003108415954474235,-0.0001584603594421683,-0.0006850733034962154,-0.0012555404983699953,-0.0018273831281399415,-0.0023959974727790836,-0.0030118876649768193,-0.0035992342954299,-0.0041658089022278775,-0.004735255882447952,-0.005228093386369625,-0.005717145086445939,-0.006301757282691997,-0.006818270328373656,-0.007192998292785769,-0.0076525144993570314,-0.00809797988748805,-0.008465114228735676
-0.008831044357791829,-0.008755444553488723,-0.007867366563832138,-0.006180441691019667,-0.0038760561871239393,-0.0014557999064101388,0.0009279943653929849,0.003045281084221194,0.004764567013019617,0.006147755058387228,0.007136485982792771,0.007661287631659257,0.008029567978068784,0.008172250071024364,0.008078931549357366,0.007884690646175805,0.007510465082705767,0.006959849159256526,0.006225798114593383,0.0053564786775174515,0.004601443511811091,0.003876647735994407,0.0032439963740806127,0.0028023781082513557,0.0024885842377376116,0.002250733035527349,0.002153751642579779,0.0020458503575154796,0.001919479216883975,0.0017407430789139072,0.001353685388013404,0.0008761815278265576,0.00041224255720048036,-6.546663926713626e-05,-0.0007744374372259187,-0.00146168814050513,-0.002119394099123463,-0.0026888721734646083,-0.0032785524395765007,-0.003922332121761096,-0.004485565742042912,-0.005005208267518478,-0.005459579979577683,-0.005930149281207546,-0.006392291423848848,-0.006825533650113113,-0.00728456084882771,-0.00769583385421653,-0.00806199210563072,-0.008402083600017821
-0.009103780175154001,-0.008651093340509168,-0.007250001625895494,-0.00510658839445825,-0.0026069097243804143,-0.00012853741428275295,0.0021557612497149535,0.004163267422249084,0.005817078857775754,0.006989119252343377,0.007820384351420134,0.008233425271486136,0.008298429207941767,0.008368643605347333,0.00833744557550888,0.008074890095483359,0.007608602736945328,0.006976084706285529,0.006208409968669698,0.005396198034553513,0.004629536252008104,0.003930392279393359,0.00331895152021545,0.002835100199715589,0.002566327792565134,0.0023331348009955994,0.002131528043277817,0.0019684703421970332,0.001740347679687298,0.001475704698810757,0.0011021243835459343,0.0006796505154075984,0.00017018081031556064,-0.00043136521722302674,-0.001012723307275904,-0.0016612222398964603,-0.00230736446228042,-0.002958941217786209,-0.0035919152024668265,-0.00420281564010423,-0.004792643018743102,-0.005328223222383299,-0.005808016430964692,-0.006264213087616791,-0.006749487686665187,-0.00725966910687917,-0.007668501292463871,-0.008160907477570497,-0.008669140995955602,-0.009055827395601306
-0.008897118596258673,-0.008355518543681672,-0.006815886346472369,-0.004541179669839054,-0.0019419162137922865,0.0004930789623824197,0.0026650569704192648,0.004480332652088708,0.005831326500921261,0.0067467887591194185,0.007414772991986764,0.007863170592109463,0.008017383525757238,0.007989527635704773,0.00775373308622117,0.0073163522423297265,0.0067842502837395235,0.006106553648595713,0.005329201530721206,0.004634808661860062,0.003913962865023096,0.0032818663189518767,0.0028688437130012213,0.0026840033683527527,0.0024612384265957077,0.0022746373687707105,0.002176117159005954,0.0020923711126537375,0.0019314831142685,0.001642712509517252,0.0012802970513197602,0.0007682784672558387,0.000187154421981785,-0.00037679942287983026,-0.0009396892571489184,-0.001590371770751763,-0.0022636804723225007,-0.002914414426923892,-0.0035431288170810365,-0.004089833856959345,-0.004581802472967161,-0.005058017869409752,-0.005552185797821509,-0.006042973117865078,-0.0064784709573819845,-0.006903072358736435,-0.007385501523002986,-0.007792436679597807,-0.008143266296176479,-0.00848054324554495
-0.009566537859962877,-0.009323678876807193,-0.008140154569532817,-0.005969676555709386,-0.0032415700320012958,-0.0005660625914632974,0.0019200831677684918,0.003998912667994382,0.005615135259678235,0.006713118394253537,0.007434495170029844,0.007792663794668949,0.007981444187455573,0.008010775320185608,0.007767525640586975,0.007348941797054283,0.006722924838771825,0.005962466519021746,0.005146259564892099,0.004392163003551429,0.0038786515368964894,0.0035571375762698853,0.00336010218841683,0.0032227495666207985,0.0031938502891994216,0.0031710855218460747,0.003111094029350608,0.0028296545972288966,0.002475283102459237,0.002050326621892434,0.001491476483354522,0.0009355467540832175,0.00022440894373806507,-0.0005014816554378251,-0.0012285580129808072,-0.001934491224382032,-0.0026257169886263914,-0.0032943187922877316,-0.003936445375786419,-0.004472825406329248,-0.004882547462015947,-0.005407958612725745,-0.005875444617961622,-0.006303689261043892,-0.00674679487642227,-0.007167551835888184,-0.007557292090390339,-0.008048131091090668,-0.00856808322395312,-0.009022336837933041
-0.008546938441293445,-0.008119937712471425,-0.007060094643261655,-0.0054178078607072366,-0.00329482719463194,-0.0011424457184094337,0.0008695326704395245,0.0027277335909748437,0.004306102517748616,0.0055493818499995785,0.006477985291641425,0.007166433739617237,0.007614018541115042,0.00783098453090367,0.007869961117451764,0.007754420709454352,0.007499346762385645,0.0070926850754613815,0.006508711749058127,0.005823420838541575,0.005082929604660324,0.004322706871634743,0.0035884236346215214,0.0030088005972807538,0.0025769583466144783,0.002167691012188506,0.0017898473595526002,0.0015381659448758266,0.0013846358833872964,0.001175742328395841,0.0008783816034269955,0.000556519894188284,0.00024126422577656616,-0.00016472083855149233,-0.0005275647597476487,-0.0008822391005809572,-0.0013532963926884065,-0.0018960935665901044,-0.0024682728666644573,-0.0030404863365595986,-0.003624688031190661,-0.00415474455592388,-0.0046633603692748165,-0.00525738098730872,-0.005746787986691202,-0.006197541410400453,-0.006765389597588214,-0.007244713660166382,-0.00766889247405713,-0.008073797948001196
-0.007062609752874644,-0.0069078143459086515,-0.006082881771134381,-0.004627320145251206,-0.002804159987926221,-0.001008052532713899,0.0006798704028823644,0.00214876958750191,0.00341735364981858,0.004456539960091443,0.005192710118866508,0.005703164830826571,0.0060462838394559765,0.006195486050882043,0.0061436131204525585,0.006064322612428148,0.00584640290420008,0.005445729643199784,0.004850313623483026,0.004302662995574856,0.0037095306571916717,0.003025360739311481,0.0023878957672473907,0.0018956354984083928,0.0015313497784866657,0.0013323975441987717,0.0012027105988683738,0.0011053964486972176,0.0010183551634876237,0.0009343342377292431,0.0008321834480668211,0.0006113249006755206,0.00034397666715457276,2.767637013188323e-05,-0.00035658427981622093,-0.0007508525977381004,-0.001157978999752752,-0.0015956487785532519,-0.0020745795173494888,-0.0025651686106279202,-0.003040089405149353,-0.0034333246491805016,-0.0038228749650567667,-0.004280030983321879,-0.004740270139725269,-0.005143012346618442,-0.005517956133850923,-0.005982800624299049,-0.006403938335535891,-0.006686190212029282
-0.007998790955174608,-0.007865629805581663,-0.006835005201783821,-0.005084022250713563,-0.002952800511441444,-0.0008740186304178603,0.001112268204978463,0.00289556563145905,0.004436713239130202,0.005658954662517715,0.006419919521103508,0.006887422864054154,0.007104014219774922,0.007211800630164122,0.007179236935693935,0.006851004552250692,0.006407777645801771,0.005895095421454404,0.00533155813608995,0.004649722553998226,0.00389302238069563,0.0031727657633177668,0.002632236726303856,0.0022925555336023697,0.0020966027591833303,0.001989632344724017,0.0018518107827569844,0.0017388556480435447,0.001729486557239723,0.0015409567737798473,0.0012755112285620929,0.0009644605349927868,0.00048175514209819313,-7.466523802480065e-05,-0.0005627554661890852,-0.0010720132200186861,-0.0015736218337889314,-0.002145278919142806,-0.0027920272434506536,-0.0033131560942986802,-0.003811382913586226,-0.004300677422912228,-0.0047457618058499036,-0.00518325436617246,-0.005608386194043883,-0.006064970850074814,-0.006583331174475349,-0.0070862093016654856,-0.007522880890655954,-0.007908918661890762
-0.008770041808066138,-0.008470420115253141,-0.007289354691599435,-0.005293935770460557,-0.0027854977603593116,-0.0003719473283243689,0.0018032077412909245,0.0036795508547691367,0.005221971714096172,0.006364566454293436,0.007106514698439773,0.007496121269573224,0.007632296029119791,0.0076429074800562075,0.007492305241378101,0.0072031688442788094,0.00669744279312952,0.006036655387595591,0.0052608071053295655,0.004481049399920117,0.0037371843779058665,0.0030375859205453693,0.0024622455313035156,0.002075364674217809,0.0018420013582688172,0.001724220832750798,0.0017628919504670056,0.0017914970548672984,0.0016715654680552945,0.0015025382337538462,0.0011894670200578747,0.0008233389317022887,0.0004578005919014058,-5.100692503340675e-05,-0.0006297478279359824,-0.0012565952978770105,-0.0019306377211427289,-0.0025544365848934785,-0.0031283680115213068,-0.003696729338393763,-0.00421604508591031,-0.004678131848867321,-0.005104924627033744,-0.005622007456696977,-0.006088334009460759,-0.0065657733015065545,-0.007034517910489392,-0.0074761281221912,-0.007870845902924542,-0.008203677060498928
-0.00892375324271233,-0.008446140326892745,-0.006925387605905628,-0.004550997633391737,-0.001766893922944363,0.0008597433311123892,0.0031978215421085907,0.0050434029986247565,0.006485838828034748,0.007520198023238539,0.00808079134102244,0.00832222328650169,0.008331406783078015,0.008071977092592648,0.007719288283770567,0.00726448615595913,0.0066468907874564056,0.005884707144020257,0.00494834095704969,0.004149192490252332,0.0035362953760500276,0.0030043170573395886,0.0026671839955549836,0.0025314061305980184,0.002463450907049393,0.002451555174258562,0.002387052110707724,0.0022277670355423307,0.001985941052406161,0.0015957002297059253,0.0011493082779812692,0.0006281018918166905,3.2940853874732334e-05,-0.0007161372057683934,-0.001409427002614746,-0.0020629846339728338,-0.0026904661616404795,-0.003315156899895768,-0.004002960587936259,-0.004580253798658847,-0.005079948526729208,-0.005540770745837027,-0.00598319120905005,-0.006402065087815216,-0.0067839266885845375,-0.007238412203890277,-0.007681064040852734,-0.008059625072539519,-0.008431875014795549,-0.008769654330449909
-0.008580287132045433,-0.00826907135577313,-0.007097402256817748,-0.0051123589921760835,-0.0025964150479625223,-0.00011831988857643054,0.0020848745961523007,0.003993217655399695,0.005536646119880548,0.006643974112957228,0.0073645042043609735,0.007800686378809563,0.007951885224108373,0.00787645760291215,0.007604025820372597,0.007245094392578581,0.006750535405419136,0.006119503032911677,0.00541706192263885,0.004637848927428745,0.0038005482597145033,0.0030643944622400225,0.0025533939375229566,0.0022999766364313967,0.0021555775957299863,0.002083051343338245,0.002110384099654886,0.002001989753760236,0.0018035391633803737,0.0016417328999264753,0.0013656232751348436,0.0009886302978900665,0.000515819858445815,-6.067088953524974e-05,-0.0006735029365451255,-0.0013385571439494541,-0.0019603909448723885,-0.002588146919588411,-0.0031706008749007577,-0.0037241577686087284,-0.004285540753777966,-0.004754749542342396,-0.005227622800631906,-0.0057887487899801904,-0.006205658042412562,-0.00658092756181629,-0.007088077914872611,-0.00752622559867995,-0.007913328442890591,-0.008291902738257709
-0.008750029679034538,-0.008668186930928825,-0.007819663306081052,-0.006156557970645487,-0.0038315208790399916,-0.0013578201309927516,0.0010348921334401024,0.0031633428864780476,0.0049238776323065996,0.006309650587234326,0.007203141375861329,0.007774142875150145,0.008093856863461538,0.008144553961216784,0.007937192177320177,0.007629995194490933,0.007194151533866213,0.006644846183167613,0.005891655513514728,0.005053898507292333,0.004238345674190208,0.0034606907848055866,0.002893708450908962,0.0025182212888072916,0.002284790225743285,0.0021211199049421953,0.0019963199055872726,0.0018664013670288214,0.001738586505981968,0.0015678119395467701,0.001275704438238046,0.0009583130662665508,0.0005470837815174314,4.6535313008046715e-05,-0.0005798086466297162,-0.0012366421899144087,-0.001820624421993229,-0.0023732238807505747,-0.003003017983831002,-0.003590975263153087,-0.0040689248510185575,-0.004618620800850607,-0.0051271237968531095,-0.005572029397422286,-0.006009665095057316,-0.006417768936229233,-0.006824395062698737,-0.0073182152500132994,-0.0077860014701532755,-0.008162563989774732
-0.008520409035454802,-0.008252584877519226,-0.0071386388347423725,-0.005282265318930017,-0.0029384288089892444,-0.0005330927452509781,0.0017076658217929173,0.003659374367892708,0.005222625054078642,0.006442226164664148,0.007229293847164439,0.0076213312240168,0.007760933577820951,0.007791582060334995,0.007663057961704275,0.007357347494149483,0.006913952357348892,0.0063498332252563145,0.0056585614638936365,0.00473874895851701,0.003873914560063341,0.0032012846028615,0.0026229116459941405,0.0022556679503205252,0.002056822880587482,0.0019644664683327664,0.0019290263138287242,0.0017907229881331539,0.0016981176268203134,0.001540217735152415,0.0012868787408367814,0.0009441387558824178,0.0005447164539824673,7.961412434319016e-05,-0.0005292131865347524,-0.001106148417663789,-0.0017454457667419256,-0.0023923064489868823,-0.0029508152712411483,-0.003522275370396518,-0.004085039075264515,-0.004621457345764304,-0.005129203732370508,-0.005600814811444039,-0.006048569540177971,-0.006540906997047841,-0.00703181932292375,-0.007482551520708927,-0.007912288122750865,-0.008290670943578273
-0.007977355175958128,-0.007740423743415844,-0.006637959941279463,-0.004809353033522389,-0.0025695855536374537,-0.000472623139329209,0.0014979575668299001,0.003185158386809548,0.004622517111464751,0.0056680624631747015,0.006311567202188682,0.006681725532480985,0.0068330705030981344,0.006835774180023106,0.006705004804111389,0.0064294007229668635,0.00593855295869824,0.0053076393661453366,0.0046267589266537875,0.004035097145445149,0.003475576729742947,0.0030423532307728173,0.0027425904421298298,0.0025575363100580014,0.002606710793691259,0.002711179632111782,0.002623322996181196,0.002486035615449013,0.002313078371925037,0.002071075142047296,0.0016848728642457045,0.0011428974718823513,0.0006243396084851339,0.0001223183816298266,-0.0004938492769844448,-0.0012281568511687455,-0.0019539748496975057,-0.0025971913299916403,-0.0031432867917161266,-0.0035641775806240852,-0.00404651468281649,-0.004530651935453506,-0.004889950680442108,-0.0052570006884695335,-0.005657560205105575,-0.006067165441157945,-0.006510087020163931,-0.006917651938853166,-0.007303947497227523,-0.00772464821255069
-0.009006325198610903,-0.008709937493967663,-0.007787196749815012,-0.006251405441327166,-0.004172366807841904,-0.0019442719718447943,0.00015537325688543563,0.002023190733925164,0.0035911043258478855,0.004749802304619749,0.005497565157934477,0.0059922740784599,0.00627651722118575,0.0063752854324853015,0.006417913013020996,0.00644625584313811,0.006518379752957283,0.006590467629883086,0.006435299980770663,0.006091325524088277,0.0056284116864931035,0.005079835707101438,0.004597267014615827,0.004219372583600255,0.0038870544775567,0.0035813661853872636,0.0033280470938031395,0.003046651539800099,0.0026949377116915188,0.0023097985415022103,0.0019048225135238253,0.0015427679454825427,0.0011067785975969547,0.0005506756841172236,-4.465714574825468e-05,-0.0006797507110372962,-0.0013186539150196596,-0.002004195461533241,-0.002691285077376349,-0.0033900504301608734,-0.004091659625087975,-0.004735315286647961,-0.005367006362580445,-0.005986771170543726,-0.0065622033454095135,-0.007122033622118723,-0.007631567361507434,-0.008024524338782759,-0.008389347982424859,-0.008756797872791558
-0.008121200710113624,-0.00804179929400843,-0.007375942582510582,-0.006117982466248223,-0.004284738079001646,-0.002182890456755179,-0.00017164451786783668,0.0016523269417462298,0.0031595628316666833,0.004272473700629271,0.005035237049781488,0.005605811872075356,0.006040498831758676,0.006377406524743508,0.006637905668664924,0.006780079618355149,0.006775697702111612,0.006665360880121355,0.006521207730844322,0.006344033709872643,0.006019720346457256,0.0055861088580129725,0.005070387419543837,0.004530497334906735,0.003944650426350193,0.0034385022237370362,0.002987027769455328,0.00250670722353817,0.002033789401985045,0.001633971213232993,0.0012433532808764558,0.0007998553569208844,0.0004089257858326047,5.79709828730787e-05,-0.0003570368785152982,-0.0008539390034240389,-0.0013614444245666935,-0.0018648671578724546,-0.00238301567583573,-0.002968350006747938,-0.0035311196819515804,-0.004075363560595754,-0.004617976426543544,-0.005131517913231922,-0.005601051902122962,-0.006092828900045879,-0.006615913198835856,-0.007107546603921401,-0.007546260929921876,-0.007925044752236609
-0.009021896492626937,-0.008809019701293708,-0.008040090764993981,-0.006705490508648364,-0.00481656857896675,-0.002562438999419409,-0.00019098605215160392,0.0019063639298387823,0.0035432594596892285,0.004763427908967769,0.005607416087774324,0.006160670176391889,0.006522946416469849,0.006728894912783684,0.006888468233747084,0.007061086871446379,0.007121430375704375,0.0070941913753884605,0.006982670070380587,0.006677987354446531,0.006253713169906638,0.005730913512693894,0.005092656077122998,0.00447475343666217,0.003947674020593573,0.0034898588279963323,0.0030158476920211126,0.0025319446689915787,0.002173078268661616,0.001865239047188073,0.001508438850829096,0.0011866040874119524,0.0008863776456696565,0.00047726929166222394,-4.404929184620791e-05,-0.0006615337731204938,-0.0012300167601384268,-0.0017715772392325655,-0.0024156704882311343,-0.003101388627732695,-0.003791682444168703,-0.004443698498731172,-0.0050188658764371286,-0.0055737944008083075,-0.006183868364883151,-0.006761283559304605,-0.00726959496206399,-0.007743078784067467,-0.008190905003545804,-0.008615100061048523
