-0.006448573798257018,-0.006678315033535174,-0.00601750844735129,-0.004267728316246789,-0.0009084313018994314,0.001992040981890229,0.00354667256618832,0.004595696883513066,0.005252039196837265,0.005566768552313059,0.0056531801842708155,0.005624395171379973,0.005549454047852487,0.0053493264933464815,0.004988107313010963,0.004476032413383984,0.004070054599303527,0.0037652296055289258,0.0034764617340346427,0.003113677700717868,0.0026470557845436095,0.0020745622680496795,0.0015322277789613225,0.0010791869788555196,0.0007433675942574192,0.0004001489329123518,9.638320259720022e-05,7.22936373918434e-05,0.00014036013643254613,0.0002283733306543647,0.000408748519975982,0.0004745921187710114,0.00034415026358923046,0.00019534374589292366,0.00011421874167969213,6.933633696938984e-05,-0.0003479174274613034,-0.0009008601637669532,-0.0013346272207050921,-0.0017794610267340188,-0.0022712871977877097,-0.0028102079444145226,-0.003268468244138389,-0.003793216475652873,-0.004602238952825329,-0.005165507072922392,-0.005512541515797746,-0.005969935480437968,-0.006398844427048032,-0.00674815014224898
-0.006475546534893746,-0.00518267066643454,-0.0027305781814698942,2.3256199542005568e-05,0.001596655151357721,0.002606234234256366,0.003280046953850467,0.0037302361113629684,0.0041292173618346735,0.004176862954034368,0.0038129599250282483,0.003712003782771967,0.003540020944065408,0.0032314815580829354,0.003099643132498176,0.0029836400490091805,0.0028652544778100413,0.0027800698682848824,0.0024775763246941314,0.002085052256092041,0.001786082938105664,0.0015294238714977026,0.0013314589189812268,0.0012186783130230458,0.0012216418028625849,0.0012282786828432504,0.001190481652301505,0.001122327067629418,0.0010960429886926588,0.0010736557399112832,0.0009803586965495558,0.0009098376101209207,0.0006867718621803654,0.00021719161917470198,-9.973814250874885e-05,-0.0005058072375158423,-0.0011014922243480696,-0.0016548328671516775,-0.0021532103597934208,-0.002564448186658537,-0.002841061008261645,-0.0031901439452780792,-0.003508098372453271,-0.0036418270627808762,-0.003969186888781143,-0.004405430923731249,-0.004815879631346898,-0.005172963424068223,-0.005483552683849086,-0.005753081473396672
-0.004435143146105774,-0.00416540216502215,-0.003032833465052915,-0.0013128049920459166,0.0004844655393734852,0.0016051248319717114,0.002473495331822482,0.003141162857956993,0.003393398693673012,0.003515895217963043,0.00361827098308271,0.0036644735051417285,0.003517087177449627,0.0033069533903379808,0.003217809791420106,0.0032192189281918314,0.0029312629576122374,0.002800232515861007,0.002736117366816542,0.002519242809555793,0.0022312121159198408,0.0018965802659865717,0.001576682729067884,0.0013559193116094216,0.0012615559380275982,0.0012615387724610292,0.001306149249433218,0.0013270033024634779,0.0012629149919364407,0.0010792298014276644,0.0008132910962641944,0.0005993007476571744,0.00041970379721259217,0.00018734747828047437,-0.00017316195707615289,-0.0006467765468677389,-0.001037433314463413,-0.001316468612643801,-0.001554979494581886,-0.001836792581002979,-0.0022232941837753237,-0.0026193570996574005,-0.0028567616618317454,-0.0031909351661231853,-0.003631852142367863,-0.004157213054850317,-0.00475204108078076,-0.0052760033882334485,-0.005713494981171336,-0.006079995191943681
-0.0068559909390358605,-0.006679796719474722,-0.0053107985013045355,-0.00302209755258105,-0.0002875904730323939,0.002428452556999474,0.004504077879904274,0.005648763138061582,0.0061352678008767545,0.006432174403286282,0.006491884117281346,0.006125257669316187,0.005974617682806131,0.0057885627663440435,0.0054166521370204185,0.005127615523677782,0.00477803731580905,0.004314654436938004,0.0037487341727928942,0.003128885481389954,0.0026172815625910098,0.002282190205745502,0.002009743209677006,0.0017177484356532488,0.0015434355761996625,0.0016533644476278751,0.001623668429075412,0.0015363955075848542,0.0014891093987031453,0.001440731305032623,0.0010905818494573553,0.0005681234512510019,0.0001557474912972389,-0.00048093878475562315,-0.0010850843346910967,-0.001584907678836912,-0.0023735871915252994,-0.003123257022520463,-0.0037064603466333847,-0.004137926984636105,-0.004551365751204731,-0.004931457827397186,-0.005233166647284568,-0.0054188501822064064,-0.0057680521192797285,-0.006151729752115757,-0.00630266137912334,-0.006594991007187423,-0.006922718306986212,-0.0071697915879869074
-0.005624734887882954,-0.005703594726551294,-0.005306186318843553,-0.0040402704480248216,-0.00159112618213473,0.0005058600000527699,0.0019829978893437287,0.0028980725406900316,0.0034543331373579306,0.003883194982051041,0.004127467750945416,0.0040401467207934446,0.003898100696431213,0.003613396595109148,0.0031906955948658965,0.0029095306744647085,0.0027622399034405304,0.0026619793761350615,0.002502199761697402,0.002324694439079167,0.0021163762775918906,0.0018713461154477532,0.0016161477081865607,0.0014054613411398306,0.001277169136080468,0.0012515103608706844,0.0012794184583460896,0.0013384282501371484,0.0013449352386969609,0.0011084776577525014,0.0009853111280057367,0.000918384228085739,0.0006752184754083212,0.0004716454240511608,0.0002134780696438552,-0.00019407140898167972,-0.0007450017124750746,-0.0011144739976421468,-0.0014225058234962561,-0.001935257140234187,-0.0022233127073717517,-0.0024935655771545382,-0.002840014089631948,-0.0029951320124632767,-0.0031893902053967047,-0.0034684670326696095,-0.003775076028226528,-0.004114254846926331,-0.004395277882283411,-0.00455514550142334
-0.004923825522794416,-0.004790715014975235,-0.003707848102423714,-0.0018920656196088712,0.00018995068699595433,0.001633001840258316,0.0025481435674845386,0.00319351369239688,0.0037738422929205558,0.003949179031793616,0.003770529952898052,0.0035290875943724508,0.0034570364772598134,0.0032981029630298323,0.0029536860293980153,0.0027275004771514905,0.0026789884418263734,0.0026646252966992107,0.002481791641606288,0.002288416793437728,0.0020358827359986792,0.0017256909997241116,0.0015134521150902466,0.0014298872995815645,0.0013623274566123614,0.0011682566588053966,0.0010395007431713524,0.0010581736734027567,0.001134580986506506,0.0009349810430371864,0.0008403085509106389,0.0007646862006429216,0.0004427199830196764,0.0002458709209307791,3.8342174219863044e-05,-0.00034170016100456695,-0.0009458700177442962,-0.001422281013703001,-0.001760360193070356,-0.002123190731274471,-0.002506628477728114,-0.002802474940671311,-0.0029779437532981177,-0.0031545813799895334,-0.003384967947126151,-0.0037078426782951018,-0.004126798839365919,-0.00446094864005317,-0.004677121878353301,-0.004773273835823255
-0.006564134743837951,-0.006567565666786679,-0.005808875766572696,-0.004207834005908208,-0.001710662635705261,0.000828540700804364,0.0030911059660696533,0.004897790179714791,0.005959730325777404,0.0063712433179933855,0.006348804403389468,0.006295560347315279,0.006135840748502815,0.005823097048308357,0.005385886876801916,0.004887113619457277,0.0043493299766273665,0.0037785110917058795,0.003198687699370608,0.002626064820135427,0.0020922118580845553,0.0016977727934251075,0.0014040866519486976,0.0012082402596471952,0.0012106228322035612,0.0011897683620333162,0.0010860818366096162,0.0009996592885138198,0.0009577580720163797,0.0009255225628248752,0.0008118015551180191,0.0004053071532605459,-4.9576757357066636e-05,-0.0003671118454654503,-0.000925855577230557,-0.0015919122891168641,-0.0022136577789456107,-0.002674496692925702,-0.0031055042844279155,-0.0035114887677460344,-0.0038002171246938,-0.004100843703888541,-0.00443471173028423,-0.004773608240132543,-0.005061744490797564,-0.005285189303335079,-0.005444692575078985,-0.005559231053460824,-0.005722783611251326,-0.005986289576598048
-0.006673750934944029,-0.006746671670170079,-0.0055319025857102095,-0.0030940695772538333,3.533087799563331e-05,0.0019875931781780606,0.0031150936720660783,0.0037546507989037687,0.004100677889938815,0.004381342453851145,0.004511180876224581,0.0044567133490543325,0.004295249403529841,0.004040927685082786,0.00379216906365241,0.0036460083993814685,0.0036438356110687943,0.0034926954967022545,0.0032122479111764543,0.0029245872723636748,0.002663653206235669,0.0024088833702918524,0.0021415551532770866,0.0018744612208236751,0.0017407188566529095,0.0017163891930248962,0.0017851101174344735,0.0019182335777623914,0.0018329888118517126,0.0015882929002075078,0.0013131508380307211,0.001107575573347752,0.0006962002185547238,0.00019191812215555012,-0.00027422999643316793,-0.0008535379593803577,-0.0014243476687012303,-0.0019166557816842564,-0.002309180355248161,-0.002639960467987116,-0.0030182932057376812,-0.00337739419737677,-0.0035462791343582947,-0.0037308512279606407,-0.004032004974971578,-0.0044411238688942594,-0.004848897383766819,-0.005293429546043659,-0.005680905338666815,-0.005922741614754429
-0.008508925852342747,-0.007572729789835816,-0.0046368460988714,-0.00041863465094528376,0.00342790980194896,0.006319653163501925,0.008139438222656413,0.009048685472551984,0.009306798920685963,0.009204204673927052,0.009100360904972711,0.008731753853963856,0.008103484667779322,0.007372818796527105,0.006719923424139274,0.006168897211423797,0.005666599959458487,0.005040241659036505,0.004265050178128155,0.003368536171642179,0.00240023020351964,0.0015316453185392847,0.0009508230870261574,0.0006301676167880408,0.0004817271793800031,0.000420072075973657,0.00045944747715784555,0.00046900047949147193,0.00034080197010324785,0.00016834795196772102,-4.645406883323025e-05,-0.00031261269906160123,-0.0006256441963171045,-0.0009792718009042807,-0.0014064116885334908,-0.002062291396825042,-0.0026723704281171783,-0.0031243579088526974,-0.0037378366824759542,-0.004482691315078263,-0.005204018695313389,-0.005508878753350605,-0.0058583816329920635,-0.006361065102881998,-0.00653755998285122,-0.006873506669028154,-0.007431610991279433,-0.0076884066556431275,-0.007906770595125946,-0.008216755124749483
-0.00895397268269567,-0.008941510622976283,-0.007147434028541814,-0.003878690263358189,0.00017761759509511097,0.0035759946318609016,0.005836447557843653,0.006983409765308826,0.0075706006349994396,0.007717819231050468,0.00760161494351358,0.007442159777774877,0.007274926204295393,0.007021020465910226,0.006636251745603478,0.0061683975543229885,0.00573839353204977,0.005348891551222602,0.00489373674416749,0.004071969338191857,0.0031347898429192663,0.002326363031257658,0.0017510495751709562,0.0013677229333483184,0.001190781102675907,0.0012580503206612824,0.001523564900163286,0.0016402087605183727,0.0014759681792912748,0.0013158768796912078,0.001044514211531997,0.0006076864912627373,2.7695078265795366e-05,-0.0004932676180708229,-0.001035738477350146,-0.0017007433080703945,-0.0025417232143109844,-0.003377778095907097,-0.004069055885469535,-0.004537421205541349,-0.004977594724192175,-0.0054391783611588505,-0.00592057673954942,-0.006383057374320163,-0.006820089639126128,-0.007256380007426055,-0.007714896757121473,-0.008105773297114371,-0.008448964213091133,-0.008768519351005649
-0.006061734852020232,-0.006022824561509694,-0.004102301543072868,-0.000560260748594576,0.0038888132037993924,0.007229282879484223,0.009250503518515535,0.010175575295749006,0.01041531695503478,0.01019716302820019,0.009706221197433366,0.009100233680078859,0.008319369348331022,0.007397372261005801,0.006393732760041056,0.005399340055734316,0.004514986484594533,0.0036884430567611613,0.0028310811449624384,0.0021528273065003745,0.0015051960496293597,0.0008613722090271185,0.0005040095816711232,0.0003648866106038887,0.0002823642472302621,8.87172054073481e-05,-7.20900619512325e-05,-0.0001819510676580058,-0.00029853481477536126,-0.000571524979197433,-0.0009291666120230058,-0.001372139675806911,-0.001931823692494222,-0.002543523928114309,-0.0030365608736774193,-0.0034300850893088063,-0.004075726531885504,-0.00464567266879293,-0.005054336303315931,-0.005350162985960358,-0.00551249533833491,-0.005579085526292727,-0.0056512957026125694,-0.0059142802346297514,-0.005965254495752463,-0.0058896803504394765,-0.005994902594364425,-0.006124787817575967,-0.0061673975450255185,-0.006063995969949714
-0.0062408922111995705,-0.005973425374796605,-0.0042822067399896375,-0.0017722493998578194,0.0005333912537835493,0.0017837223447494852,0.0026095149134404178,0.0034295201131861216,0.003932123682800175,0.004277941081702863,0.004374630190024697,0.004088455071789141,0.003966750614745537,0.0039025844116772814,0.0038149914777637754,0.003850246725040474,0.0037902489011198953,0.003608223185393777,0.003386325545481556,0.0031628628107757345,0.002856527646574345,0.0024720688699129724,0.0021898025978546224,0.0018966576836770888,0.001695352608364056,0.0017343938893301261,0.0016326176447351776,0.0014273806896347658,0.0012572439540844671,0.0012933157653126303,0.0010928070861443758,0.0007418205829983603,0.0005626863527766468,0.00036485709956042133,-2.2274720565607802e-05,-0.0006303503527927741,-0.0012650752983198379,-0.001750932296090853,-0.0021350522508044012,-0.0025442586817917873,-0.002836249865263532,-0.003183787958949519,-0.0036356872785819525,-0.003948529701366264,-0.004216089201141958,-0.004545483265852345,-0.005010133925372655,-0.005445387205766627,-0.005770006873265449,-0.005947112369796234
-0.005253876800634017,-0.005227042238499174,-0.003933561964664883,-0.001031537467432293,0.0034879265444717963,0.006697160411080957,0.008482682123827585,0.009257631686881117,0.009486856661435821,0.009434753667200323,0.009052676980766408,0.008229229368666602,0.007430181120190348,0.006627261140967963,0.005737638192043743,0.0047502375237090935,0.003938925432911475,0.003208184068145228,0.0023323589010414703,0.0016206431640924254,0.0010180187411919128,0.0004901653619990655,0.00014594577958738992,-8.18785950632079e-05,-0.0003116200410989554,-0.0006289774313210951,-0.0007412260913058952,-0.0007831725796554313,-0.000897034509445203,-0.00112799813838007,-0.0014657431389797047,-0.0019259150273992082,-0.002502606323604619,-0.002983785076559287,-0.0033155839140832162,-0.003596470072545588,-0.004121393604119269,-0.00448111396931285,-0.004636342196581226,-0.004771902859044926,-0.005042863385087729,-0.005155467019527191,-0.005045176569444207,-0.005142543194204876,-0.005181768358382844,-0.005153722152676995,-0.005183283707924593,-0.005212868881576635,-0.005204870350741168,-0.005140164452432977
-0.008245053849749887,-0.007115778162902798,-0.0046512744914925545,-0.0016305744321459897,0.00022385585754659072,0.001533065634099623,0.002529458626153196,0.0031899235770337904,0.003625578575961573,0.003895062717291213,0.004035675411480396,0.004003234732195042,0.003865646011942567,0.003755432146774037,0.0036565814443084753,0.0035729807136230464,0.0035169666045631867,0.003484284210985736,0.0033777204414810807,0.003064944820638296,0.0025146504121246575,0.0018574206333333873,0.0012883462429600237,0.001022588617697277,0.0008498797750097351,0.0005640069251392783,0.0005240623292188309,0.0005995859063948642,0.0006226210481331486,0.0006531039129762698,0.0005734127879951965,0.0003206752197374368,9.947580260098671e-05,-0.00015422868957724553,-0.00048097326045618797,-0.0007660043345259321,-0.0011373248126496467,-0.001659437827631272,-0.002216337136991598,-0.0027559390425550487,-0.0032314097802191243,-0.0035698801657559304,-0.003909428181460575,-0.004340408240661825,-0.004892069957014904,-0.005318024272559897,-0.005596088354951068,-0.005995870523471582,-0.006328632547992907,-0.006503765715331067
-0.008158452237715285,-0.007907919815681912,-0.005964382133897441,-0.0026919914783573476,0.0008386644981118358,0.0034100460487928546,0.004672321631106535,0.005570074963359505,0.006175336816292893,0.0064654379086635915,0.006374076679162526,0.006186970748578301,0.006081572540691879,0.005677237803178541,0.005208588588582886,0.004973570301719399,0.004863097659265607,0.0047073856205098585,0.004330472635097129,0.003955845484207648,0.0035311182614477027,0.0028967551529552904,0.002364613799832634,0.001936855137734265,0.0014245171851362617,0.0010597483296477675,0.0008896271836763153,0.0007991521489226318,0.0008485431073666642,0.0009943132802632463,0.000998107185361167,0.0009526943390803139,0.000870345198978609,0.0005393608674984014,0.0001760955691416575,-0.00011220363783893013,-0.0006746684325346573,-0.001320311643493579,-0.0018484715861071276,-0.002412193060614802,-0.003039704747136377,-0.0037159903725859675,-0.004304566728962227,-0.0047984184238605955,-0.0052449308367534106,-0.005777529283283285,-0.006343240868030963,-0.0067814079912828,-0.007226818444048679,-0.007727840778657765
-0.00855155282673382,-0.008316635460504363,-0.006691079944733388,-0.0038210874696413617,-0.00018643146876196545,0.002188213447063241,0.0034566322931164476,0.0043807606356188866,0.0049082446735001835,0.005226483390175833,0.005435924119708698,0.005365941659352501,0.005135835251677724,0.004820464541232568,0.004453464939768694,0.004275218897780895,0.004277239044983749,0.0042916760334766385,0.0041284298006826385,0.0038074426345510847,0.003398763769312818,0.0029271210272238083,0.0023968573487782303,0.0018411619756771328,0.0013718088976241855,0.001110719041382573,0.0010708586125149967,0.0011526154316774332,0.0011645873445592894,0.0010682925073702955,0.0009030006668110167,0.0007556695838217908,0.000585182807592941,0.00031644408029910464,-0.00014060717153830874,-0.000727315324088343,-0.0013928246961883949,-0.0021076385570087705,-0.0027559787706307815,-0.003319189107810623,-0.003847102824522809,-0.00427311709953055,-0.0046471370284379785,-0.005048455058666549,-0.005404970305245575,-0.005739338715107603,-0.0061318046707897755,-0.0067779631093477805,-0.007252465186200629,-0.007308135610342958
-0.007361910365512392,-0.007318695101347495,-0.005942949187824379,-0.0032481881011637067,0.00041561650044068943,0.0030688267449128486,0.004643552206237522,0.005481622842866255,0.006052526701012579,0.006399364834809658,0.00650326526535626,0.006340548992171271,0.005975550447770159,0.005575874227439883,0.0052714479635945655,0.00512506921161787,0.005120286758602424,0.005100626859449011,0.00485591128420023,0.004429598322899999,0.0038938792211746258,0.003310851592437109,0.002738229645922839,0.002282258058611826,0.0019927857551176893,0.0018675271024117333,0.0017683326196902057,0.0017236539507772897,0.0016954829946956682,0.0014807155652832016,0.0012180655129513053,0.0009396530809399758,0.0006100394813501375,0.0001937229061329996,-0.0004233253907681489,-0.0012279969526844804,-0.001963043167034791,-0.002552307285424129,-0.0031067275979135838,-0.0037804419483496742,-0.004348690520612969,-0.004741113643799151,-0.00501531356190646,-0.005393064382638094,-0.005728853399282766,-0.006040890120051589,-0.006446701679955626,-0.007007847737723351,-0.007484877845546478,-0.007706242136487523
-0.008423171968083815,-0.00846330138936261,-0.007306067776987311,-0.0045085698969944575,-0.00016537722704513592,0.00316521274819826,0.005106906387332892,0.006021637990486807,0.006562587948476385,0.006802802019714795,0.006810509394760692,0.006618007915322894,0.006238651320949008,0.005795186273073775,0.005422411098037206,0.0052374775454756065,0.005297522701401869,0.005136007791223622,0.004795345757576053,0.004437444057362703,0.003962472595074861,0.0035596482252307137,0.0030642497167535096,0.0023064902354203746,0.0021842453462654348,0.0020876143284528177,0.0018048739986257307,0.0016634283263207484,0.0016492277255999398,0.0015745591168846204,0.001328328014912355,0.0009412789284669166,0.0003028304698075583,-0.0003652985736578739,-0.0009027746294133348,-0.001564642661461383,-0.0021965645363783096,-0.0028550751429582645,-0.0036323399335465066,-0.00423796421188151,-0.004620931128999075,-0.004895712248730661,-0.005264896255681625,-0.005663727131823297,-0.0059034658711927205,-0.006057952159653721,-0.006527614066294239,-0.007046106120483816,-0.0075208791042965135,-0.007931385199588113
-0.008092030537094314,-0.007491854806229405,-0.005207682183789168,-0.0016238238217017823,0.002372202797745846,0.004962949620561338,0.006254983535134533,0.00696342720012075,0.007443026712754681,0.007578992386609986,0.007333302156821584,0.007037828950630674,0.006703416538286636,0.006337125470503527,0.005990812042892219,0.0058216568358339955,0.0057473493079245675,0.005545720068178351,0.005190771811360824,0.004750072463368497,0.004232817317630247,0.003301877555001139,0.002507909507406917,0.002129028391688026,0.0017438265503879064,0.0013884111358770303,0.001136011606046124,0.0010697470800652776,0.001075675080425696,0.001025909090378534,0.0008070502993918584,0.000580848884768673,0.00033007990324287887,-6.6052245030399735e-06,-0.0004948082179592721,-0.0010857457296864247,-0.0017431556867427294,-0.0024633520289291397,-0.003258989539174653,-0.004049891186425431,-0.004666446157670122,-0.005119529213185894,-0.005499217696511921,-0.005921963332614075,-0.006406304810574209,-0.006816880781295664,-0.007083997234340828,-0.0073984144727282635,-0.007743341793475907,-0.008098212141557067
-0.007716797672519489,-0.0072793479878803385,-0.005711013808667424,-0.003150798731132209,-2.293674035360186e-05,0.0025306663250870345,0.004060231136985055,0.0050884770019177785,0.005773951144356179,0.006204342490239865,0.006437670104986083,0.00643394942858072,0.006198199462097397,0.005979488591768934,0.005694554445089591,0.005242519237866976,0.004835659521921852,0.004484729793600766,0.004136478038728752,0.0036883441206217163,0.003150464881657712,0.002582297592654871,0.001973161746590538,0.0013876326483884636,0.0009653511149140493,0.000660030387804346,0.00048739491411682996,0.000532119300103948,0.000587832152014973,0.0005519100718935311,0.00042161305976676336,0.00030570419943216014,0.0002326569705425396,5.793797915743429e-05,-0.00019312996307890897,-0.00049961040822327,-0.0009064625367870551,-0.0014259081982345974,-0.0020568627364634076,-0.0027560445141657864,-0.0034240194212300395,-0.003967079572585206,-0.0045214729816420865,-0.005040087746283463,-0.005432867010624138,-0.006004953409841819,-0.006632927016081625,-0.006941360177295455,-0.007194909778707778,-0.007489029551134957
-0.007844435817214453,-0.008028654370314406,-0.006926378597554521,-0.004562227438487512,-0.001106338365632649,0.0027245333801956804,0.005399118488498198,0.006998952897602603,0.007693513872743805,0.00813593798063762,0.008458494197720228,0.008580254125704564,0.008436731325227195,0.007986515336565846,0.007420749116464752,0.006789691166763033,0.006058369496068854,0.00523670066514139,0.004353607778339184,0.003677695000913095,0.0032163000470013534,0.002511941143764204,0.0017187633960822086,0.0011633002579514607,0.0006840686276558659,0.00020408243617900387,-0.00023993343486979171,-0.0005858184299190439,-0.0007233728684238666,-0.0007637466445757755,-0.0007890832271637808,-0.000873933272250171,-0.0009509154955079209,-0.0008103286945183363,-0.0007109544985213859,-0.000862818478978193,-0.0011519753964451675,-0.0015049809109194975,-0.0017888935609940049,-0.0020848623376695536,-0.00249470670904776,-0.003090061987994139,-0.00383407512101621,-0.004474384077491988,-0.005057571743350095,-0.005684447101131486,-0.006329549471356293,-0.006944489343300678,-0.007336730860972578,-0.0074784140325065245
-0.007881019361244407,-0.00789274765974638,-0.007256364251998179,-0.00556344663288099,-0.0020014545871475673,0.0015643249602738333,0.004185467319666204,0.005399241959519285,0.0062933691920670646,0.006994669015073852,0.007108276308329041,0.006986103350430997,0.006812829512478118,0.006683197759495778,0.006224657945487657,0.005652256495388215,0.005391368389533124,0.0050824540947076915,0.004717657285964737,0.004384987790340149,0.0039625605566879375,0.003459632584819114,0.0029077599905520087,0.0022375807766220057,0.0016328618605436114,0.0012773200074988821,0.0010195505877150252,0.0008516597238191811,0.0007791744283584338,0.000744395962893757,0.0006872583391124878,0.0005826108013520557,0.0005152211551924342,0.00026090265483931963,-0.00028722866561459393,-0.000834250483829151,-0.0013517049787961587,-0.001861498785239613,-0.002434231643377365,-0.0030404538804341824,-0.003634742045015552,-0.004141233131353351,-0.004759519907252268,-0.005463813344932979,-0.0058402771614680035,-0.0062504355042825345,-0.006815719598702773,-0.007338863310618839,-0.007767586655851125,-0.008083870370657846
-0.008073758683612289,-0.008357307859674945,-0.007331619255011231,-0.005045358903411522,-0.0016938578869919267,0.0012690764111356872,0.0033439933892280443,0.004605882952945692,0.005484884751268218,0.006069267158697579,0.00627002683312307,0.006137732908793785,0.00578814837429252,0.005398821929554483,0.0050872710787426,0.004867222620119618,0.004716220622270993,0.004652103460105967,0.0045369790029044215,0.004192689136016911,0.003707554318143285,0.00316552902057821,0.0026221954767740403,0.0019273934148361553,0.0013069676158744049,0.001005196846191503,0.0008692869125902026,0.0008539001032922056,0.0009342342698885348,0.0010772800173546242,0.0009947775381766982,0.000581272089577877,0.00046247461398155043,0.00027571054952519464,-0.00020823586940095336,-0.0005528254944285031,-0.0009972142367130582,-0.0016579685918243932,-0.002241609933396067,-0.0028113048114737564,-0.003420144015705766,-0.004059180693609439,-0.004695663201726676,-0.0052601083554686704,-0.005596801023978435,-0.00585910836205894,-0.006182967875232597,-0.006711079924755408,-0.007166726465175565,-0.0074236368736288055
-0.007984028211850087,-0.007752382937907856,-0.00595211320040997,-0.002722399653776482,0.0015009324342835717,0.004649501309982903,0.00639316749391736,0.007560776189537987,0.008078803823300798,0.008175706225237642,0.008297047736350425,0.008053934925458302,0.007477009258927822,0.006822096223495752,0.006215643429366908,0.005687089668772189,0.005223061352644234,0.004741648424767057,0.004144033307321011,0.00335772181600423,0.0026424791312035624,0.002049997579225203,0.0015804986587912523,0.0012607013711745294,0.000984079641601497,0.0006758214070235867,0.0005975940217576772,0.000638810640608704,0.0006306313135340696,0.0004475949710962586,0.00022069140934060603,3.558626428461516e-05,-0.00029556304792733066,-0.0006736786717378248,-0.0010071229527379663,-0.001301935022162571,-0.0018079381745066984,-0.0025745708281714116,-0.0031539830632455325,-0.0036492842892756625,-0.0041800695948627535,-0.0048449280575785115,-0.00532765761141102,-0.00561710191605975,-0.00621075394415818,-0.006705394067450677,-0.006982828821757339,-0.0073078414521017265,-0.007568087981791048,-0.007706919635194403
-0.008286906208353382,-0.008312371017204466,-0.006684633986462402,-0.0033783991610294695,0.0013048922456280721,0.00533087819097438,0.007780509246563607,0.00863441917176697,0.008999402703023074,0.00906551120179359,0.008938718257696427,0.008662419913043586,0.007937798579344473,0.0070912322785479254,0.006391718942326304,0.005870932414886908,0.00555884428284703,0.005250885864455661,0.0046689745326112106,0.004014893046298003,0.003341236039859737,0.0026989514844232335,0.0021968658380698658,0.0018117276013437655,0.001570280017235807,0.001486432618721196,0.0013190560920479453,0.0010292147460520536,0.0007160973550045091,0.0006309250781854329,0.00026198943223722503,-0.00028234499141217725,-0.0006298644645948522,-0.0010887484634156852,-0.0017140065606792295,-0.002454372490008652,-0.0031568295134645984,-0.0038371545715627916,-0.0044347877522238404,-0.004896626732455121,-0.005506237104424163,-0.005904525480568018,-0.00602029693580717,-0.006429169007830969,-0.00673011102143033,-0.006885627118941137,-0.007075482331294982,-0.007381462586638304,-0.00769719393457286,-0.007940344954932826
-0.008954591948781239,-0.008885819487429466,-0.006933848160219138,-0.0035166433882313263,0.0004576935364154365,0.003548498044778984,0.005477094362936493,0.00640064172390449,0.006729328695196032,0.006909512146420606,0.007103658397053372,0.006857577957323655,0.006432764605494416,0.006024624471768911,0.005735620072065047,0.005515763202074562,0.00533586719353647,0.005145358105008077,0.004674811134805614,0.0040439474835720175,0.0034360095716774765,0.0028177846851656697,0.0022360697907453293,0.0017227237157104655,0.0012720478901058418,0.0010097508594049515,0.000941111126915125,0.0009412398189027711,0.0008788693129907512,0.0007403296955588628,0.000575558322560746,0.0004816708022972427,0.00018463475266414846,-0.0004774133070185606,-0.0009894791468992013,-0.0016074649650386207,-0.0024042528092559235,-0.0030216099946007544,-0.0036120213397880232,-0.004220716876087975,-0.004791866093786872,-0.005308082339188391,-0.005818833808867685,-0.006368722716566146,-0.006788804635766761,-0.00715324151033072,-0.007536308203445969,-0.007883363331102483,-0.008191083469174382,-0.008460854557215652
-0.007790562043690509,-0.007415708690143213,-0.005368783542928551,-0.0020671580207910893,0.0014724123722147273,0.003984502515649598,0.005269252218020236,0.0058667430185008725,0.0064364772099101825,0.006868122379844389,0.0066251225425678255,0.0063075204791553235,0.006030568890373763,0.005694381487168841,0.005354085383519648,0.00503316893866236,0.00473809858261938,0.0044127514972912545,0.004084417731015342,0.003773191316884552,0.0032165212267137953,0.0025442878869234987,0.0019832540301333306,0.0015735326473312501,0.0013308230579105193,0.0012494329884972194,0.0012426587311317823,0.001279984289918835,0.0013177791594361343,0.0012043313170890468,0.0009778170213341874,0.0006891067590051377,0.0003386126918095808,-0.0001037022837955342,-0.0006600038888606617,-0.0013270886645521114,-0.0019437170109308708,-0.0024505689426232054,-0.0030336409956936566,-0.003696492218076132,-0.004366663813510737,-0.004829712997867148,-0.00523134070766596,-0.005662611724954978,-0.0061269710767101184,-0.0065340857815868476,-0.0068658716537163,-0.00719602414070351,-0.007537921653051299,-0.007895570988099012
-0.0070233746569508294,-0.007070810668511587,-0.00566216376313025,-0.0029474682662658375,0.0006055547382106519,0.003337260064666475,0.004690666103806867,0.005783409720678568,0.006487932429270279,0.0067091608573936696,0.006693574427626926,0.006502499506379567,0.00618872511793828,0.005900185902492598,0.005495244384141569,0.004858829540839466,0.004429530487032962,0.004093446854227689,0.0036029411420352986,0.0031864655838274728,0.00283646245496991,0.0024398357392144765,0.001952709235211447,0.0014247019722872468,0.0009897106046620437,0.0007099620666158355,0.0006141238755519473,0.000709216297869791,0.0007159961893845364,0.0005665195188137928,0.0004720096336527935,0.00040361304013029735,0.00031804412891111585,0.00014834289178960054,-0.0002162960466714128,-0.0008050387240985999,-0.0013775944037173477,-0.0018200525245831993,-0.0021063343417105033,-0.0025559840589514287,-0.003119945592318212,-0.003674031498683645,-0.004239525181839116,-0.004806085906914174,-0.00534315961033512,-0.005763567578356792,-0.006095498065196793,-0.006436083308077744,-0.006764387552266372,-0.007072318299832449
-0.007816886201684302,-0.007346158304343756,-0.005133407576145569,-0.0015618945955959945,0.002453776382559498,0.004824295033089395,0.006044908917042282,0.007176249527202716,0.007473345217450083,0.007393800218355178,0.007310573699893285,0.007005140077812032,0.006724590080056474,0.0064670213460229446,0.005928469187737549,0.005512094405753205,0.005293599663802484,0.005143822834317444,0.004864026654734819,0.004461105570005749,0.003976803458734416,0.0033524135408510964,0.002648504821420117,0.0020283154506335896,0.0018575643399212154,0.0016313497811093797,0.0013051124420302082,0.001298279874235923,0.0014073181836243929,0.0013790868085385144,0.0009967185168984415,0.000676089354212101,0.0003851695235157825,2.5027159275342633e-05,-0.00036469588869826255,-0.0009819875138409046,-0.0018505366127238262,-0.002665515666204439,-0.003317783719104723,-0.0038819395391070525,-0.004555543962123203,-0.005077826194928384,-0.005435119587851494,-0.005716127255182376,-0.0059870955535701546,-0.006315912195056813,-0.0067370250218755385,-0.007195981237547622,-0.007604082381500838,-0.007915409350347012
-0.0077362094602624765,-0.006901630763409506,-0.004599086808849327,-0.00131830966692496,0.0017879985947201447,0.003921203629490869,0.005101868790826492,0.005923362148967003,0.006349005363917519,0.006449661628891354,0.006387840818306303,0.006163985238232309,0.005883961667711096,0.005699864080667236,0.005360445626930006,0.005004687936395493,0.004907516145417761,0.004795646589436663,0.004557235530153693,0.004145400900728853,0.003680648000381091,0.003191468675808285,0.002660496871666287,0.0019450798446173818,0.0014039956101225368,0.0013599756367686476,0.0012932810275242987,0.0012453674517236316,0.0012770621769020085,0.0010702141478128064,0.0008532036731544194,0.0007720003906913521,0.0004251142621075325,5.755409921158845e-05,-0.00022396711539080118,-0.0009079074950562129,-0.0016203093738048932,-0.0021295935913085325,-0.0026536550424658303,-0.003271234459688752,-0.00396743561345326,-0.00457139544471356,-0.00503267870718422,-0.00533581102112244,-0.005505449382814824,-0.005937847826691283,-0.00662269801734573,-0.00700233921363412,-0.007291613057705327,-0.007600187584524658
-0.007295728951583713,-0.006546801604142597,-0.004473905494402781,-0.0014572125926902082,0.0014022532352165132,0.0035579278026987154,0.004869091619126873,0.005744821093066975,0.006250593951601157,0.006440438044412536,0.006468103813263518,0.006312339356832579,0.005993367065793201,0.005811750634899711,0.005577596995523996,0.005092091491349108,0.004742751182068825,0.004489170066089219,0.004171139001820936,0.0037734498503921242,0.0032847214346040416,0.00268832918429805,0.001936372748571846,0.0012108676114085484,0.0009086244108630762,0.0007712966588267441,0.0006966831892969615,0.00069153823675475,0.000725709517029773,0.0007295963956034356,0.000530654153224079,0.00029478666908812345,0.00011421116635524076,-6.804949848979163e-05,-0.0003186154946478077,-0.0006804327376963993,-0.001142511714103342,-0.0015963428423576508,-0.001979107128701873,-0.0025322230951040337,-0.0032037988858666993,-0.0038668955442905787,-0.0044093946880951855,-0.004869186337074525,-0.005326061415936831,-0.005609706433335555,-0.005845290153051144,-0.006336686712349933,-0.006757566082115865,-0.00699150824268126
-0.007920582565122165,-0.00775287763076202,-0.00612041788585376,-0.003228846526965243,0.00029986089017831766,0.0030216326818607903,0.004429920601555577,0.0053961873983692414,0.006041152671088238,0.0063669459777023025,0.006254484332184097,0.005966463045802952,0.005705878767912419,0.005314762358082448,0.00493789606957797,0.004722977477744402,0.004432543757825694,0.004064178212472065,0.003673953199794822,0.0032176140662418945,0.002736844190400549,0.002320587401503001,0.0019703298223773757,0.0016904083083172507,0.0014879122783881522,0.001325576978123218,0.0011636584525718354,0.0009422836581273547,0.0008194492535875056,0.0008345334287714891,0.0008648504307681102,0.000813049876806355,0.0006515610061514566,0.000478723803668392,0.00015505663506436076,-0.0003769413714608712,-0.0008486128989440253,-0.0012977950083353593,-0.0017843529659624826,-0.0022419528217625098,-0.0027785867419782718,-0.0034943154138653647,-0.004025456680903062,-0.004401127738199621,-0.0047839307453917184,-0.00512554330477621,-0.0054455268684551975,-0.005804905745981806,-0.006173975771542723,-0.006541871852840442
-0.006934796758441626,-0.006160070677195405,-0.003937768741851208,-0.0007304554373369661,0.002126674892022473,0.004162044918149275,0.005332816272655621,0.006223281959499677,0.0066400824980264095,0.006553239418044127,0.006553360829951001,0.006366722778350424,0.0057904492373059965,0.005300441229528877,0.00485084244895884,0.004334861170728345,0.0039068578363730955,0.003524008985720966,0.0030806177308511555,0.0025133813397784214,0.0018446588731890925,0.001161522835615445,0.0007718489663383087,0.000606786869891251,0.00033857278872465843,0.00027480971041157233,0.00045502600920201185,0.0006610937005327618,0.000827646104476065,0.0009121098473542995,0.0008608335449953376,0.0006052996119367915,0.00018832036297358046,-6.859827713039775e-05,-0.0003885520261025094,-0.0009280652919244375,-0.0015171134947918796,-0.002071887252571284,-0.002560958226507001,-0.0031467781835707613,-0.0037278850336467315,-0.0041758534207014895,-0.004722601554566586,-0.005257723750393566,-0.005563682225878293,-0.005947329246013075,-0.006408369160387058,-0.006787150626528407,-0.007139776586757043,-0.007487124742134191
-0.0074476030614287975,-0.007634311657818845,-0.006860952196382808,-0.004991449376337459,-0.0016728584154875048,0.0015011251855216825,0.0036856292819103134,0.004952411153499606,0.005779566246018657,0.006430435869403078,0.006682246162705223,0.006669856213585968,0.006515209784669087,0.006146251064482635,0.005664064539146888,0.005191419321172001,0.004752005080355758,0.004339523513308615,0.003942626749929761,0.0035950937907994686,0.0032373736912903323,0.0027526694126922035,0.002107686099461443,0.001394873767236716,0.0008352212799131204,0.0005873949688440457,0.0005720416063147322,0.00044068007325773873,0.0004344887501537252,0.0005770873902485373,0.0005487013208525486,0.0004411152962338088,0.0003403212181454829,0.0003132015091930619,0.00015655370518110294,-0.00025064013126257085,-0.0007325759544486985,-0.0012290668047680877,-0.0017090739490586459,-0.002190837490564541,-0.0026788858993168525,-0.003178981625756417,-0.0037263229274009714,-0.004297715453465738,-0.004850386873028161,-0.005429950567904246,-0.005984876858668118,-0.006403188683234339,-0.006823795884749406,-0.00729611576727077
-0.0076799722672790515,-0.0075548755233435195,-0.0056479083088977495,-0.002383515033025912,0.00120560987674957,0.003854570778723989,0.0054083875678444734,0.006458695064054581,0.007112154719184888,0.007416180030000294,0.007408263162938183,0.007132104309384109,0.00669075836800672,0.006238190232862898,0.005817950394458997,0.0054971420662170666,0.005327202235415198,0.0050223839794498685,0.004591623028840057,0.004122767218587025,0.0035074104619833516,0.002849752753334759,0.002290630354980687,0.0017569847336450835,0.0012636810756206905,0.0008760814973938383,0.0008038789550275291,0.0007473736761996529,0.000492852326233429,0.0005800393095443818,0.0006298968411513604,0.00036094687920930845,0.0002606263952708561,-4.672674313048106e-06,-0.0006106261109745844,-0.0010425625372423696,-0.0015066129176783496,-0.0021277964942963963,-0.002706418819376389,-0.0032835441851018663,-0.0038851398883748608,-0.004472930470776515,-0.004959476475707722,-0.005362968446465931,-0.005879384920817972,-0.006468232923315701,-0.007047182490136806,-0.007465798575199041,-0.007828038468139129,-0.008183859933621227
-0.007517042340367193,-0.007159601044077463,-0.005547168928589071,-0.0027338441446967624,0.0010835459566389584,0.004081086138034554,0.005554997877816766,0.006449043109525918,0.007016099338547872,0.007334882274973034,0.007255120808910548,0.006976670217921047,0.006637045157201841,0.005987036680270383,0.005277288356230687,0.004774515957033284,0.004177354700310196,0.0034594795685160802,0.002687251817823556,0.0020607267238271455,0.001489674975004571,0.0007676966952659307,0.0002901094764511492,5.203137750752701e-05,-0.0002109237225273617,-0.0003807876156084652,-0.00037940537890189036,-0.00014072384749154094,5.0547197057772324e-05,9.332193277324764e-05,0.00010686374556374462,0.00010871126998450133,7.022200330155442e-05,-0.0001425582575526532,-0.0004833095541117704,-0.0009152299280762564,-0.001477879272565652,-0.0020203975205829606,-0.0024297121590171893,-0.0029222161789485943,-0.0034981743958997585,-0.004108888864343198,-0.004729124621606799,-0.005265462531533841,-0.005614441405681912,-0.006099834087624948,-0.006649967888507923,-0.006970327758953193,-0.007228866787873383,-0.007486612481153408
-0.007531227038941997,-0.007738426898765413,-0.006852192410559201,-0.004806449068427516,-0.0013586343407298318,0.0024131493870035202,0.005503296424963881,0.007277927688232624,0.008028849872322842,0.008394923282085518,0.008548405703043209,0.008517307465757743,0.00822915801313485,0.007770104588958461,0.007172437542447764,0.006340320312774444,0.005417003590863717,0.004572524093377291,0.003846713088839849,0.0031905980771954425,0.002495239241968442,0.0018239209101205414,0.0011888960689615104,0.0005393939863724032,-3.1624313211059974e-05,-0.0004438962433726969,-0.0006443573671601778,-0.0006651608454595663,-0.0005697280254583468,-0.00045585709959150545,-0.0003394233326435129,-0.0001933343336225527,-0.00022851507883587586,-0.0005056576602324967,-0.0008146952815492658,-0.001131990022226244,-0.0014495055041834747,-0.0017083114351560025,-0.0020506535822587242,-0.002717306155505676,-0.0032720768455070945,-0.0036965442275018194,-0.004424394026669008,-0.005138046475086412,-0.005647319125783613,-0.00614744135685995,-0.0065948766218977585,-0.006916169707599334,-0.007254342354296648,-0.0076480287244727295
-0.007431912211383015,-0.007435647877529756,-0.006382787914366704,-0.004223332896677407,-0.0007745880300266295,0.0027486449961413193,0.005319137439892438,0.0068992996144543565,0.007713073008695556,0.008115362956852154,0.008147637403266687,0.007895895866272271,0.0075540078506993805,0.007098911290922352,0.006536724552952213,0.0059879399592226955,0.005388078003938942,0.004674242934355615,0.004048271000593657,0.0034937154883668614,0.0028883025614908956,0.0022707717702325704,0.00164978252796925,0.0009969570847875608,0.0005021893989437815,0.0002837849772583617,0.00020261793314792635,0.00025818478429024506,0.00046088694633680366,0.0005532139491772064,0.0005050372275463385,0.00042928891954749994,0.000309928461169301,0.00012260333284464493,-0.00018842852088839473,-0.0005527860986283522,-0.0009219350661159311,-0.0014786822470494246,-0.0021253201981150916,-0.0026349778769306637,-0.003128846144173909,-0.0036409977459919167,-0.004133889731508863,-0.004718729419954887,-0.005398649551737953,-0.00579586135448098,-0.006107211716732173,-0.006613711646197381,-0.007071671850318975,-0.007415174893266464
-0.0070301566793539135,-0.0071313814836263725,-0.0061553943284502885,-0.00394017114623428,-0.00023162215778398245,0.0030690745210745487,0.005279416278018027,0.006447999813895277,0.007081171779921994,0.0073946960755881435,0.007475829271026585,0.007231829158657057,0.00673166326123276,0.006144396323916184,0.005564399197539039,0.005033384663532221,0.004584054282704085,0.0042745327126751794,0.003932858779763624,0.0033395679253666113,0.0027115404861932655,0.0022085107016851136,0.0019165220759125175,0.0014983305501804498,0.0011017507007588002,0.0009350929203100902,0.0009029874874502291,0.0009505604979403297,0.0009977375875522875,0.0008139741125899543,0.0006287489002639503,0.0005988952382947094,0.0004204319460919309,0.00013334901327891323,-0.00024065320671572192,-0.0008601230515166131,-0.0015430970120606214,-0.0021513806146733275,-0.0026731691084785785,-0.0032854579248727664,-0.004012760612531864,-0.004571593633050483,-0.005006659839317949,-0.005376811325436815,-0.005748817297804952,-0.00612999371979695,-0.006532047542836791,-0.006980804893317287,-0.0073949588269076804,-0.007737826936190462
-0.007358121899310676,-0.007523992078061626,-0.0068380413335696125,-0.004958343782016095,-0.0014644189588883909,0.0017980855854109726,0.004065679520703223,0.0051494739454758425,0.006037599129593234,0.006491700430853103,0.006356005661801442,0.006147350712990162,0.005815729413202441,0.005346587509447874,0.004835093301985878,0.00445136463923158,0.004166042582851231,0.0038350510984024567,0.00341402626296179,0.0029624700292143254,0.0025492666784255923,0.0021526119627978016,0.0016501996982427314,0.0010951493734295838,0.000922479243412469,0.0009260378823376214,0.000970182514510735,0.0009915982615301114,0.0009316071001433978,0.0008226551111082294,0.0007374958673700135,0.0006753295925499646,0.00045299544643012397,-5.5868156403102927e-05,-0.0006412368755591883,-0.001210596215583466,-0.0017478584303414761,-0.0023223441515025085,-0.0028266908315387786,-0.003231965325769345,-0.0035911717143211628,-0.004110493380608482,-0.0046407396267434155,-0.0049334435077191445,-0.005135401656085472,-0.005542633083702907,-0.006215229920542276,-0.0064821812210299,-0.006748363717076303,-0.0072776888050040565
-0.005255735162436738,-0.004715360151177597,-0.0026847374223783523,0.00011765069356621744,0.0020848789835700467,0.003477767182419549,0.004406181330988974,0.004874690462484507,0.005129552560878018,0.00520269578408709,0.00501021852419273,0.0046038360639324965,0.004135466945572843,0.003816334315027438,0.0035012701378478615,0.003185704434608894,0.002908489453326998,0.002560372815571034,0.002191101171791091,0.0018889267713796212,0.0015568612018452325,0.0012227921091697682,0.0009379213864663049,0.0006579098835626151,0.0004964697490444209,0.0005492956039007468,0.0006130238054770545,0.0007162329243578782,0.0008690737239214134,0.0008123393036627951,0.0006138850545103155,0.0003784183238496483,0.0001804509877999197,-6.642509313614089e-05,-0.0004240230999798874,-0.0008487641365280451,-0.0013101438223898437,-0.0017676031349164864,-0.0021327309178824317,-0.0024353100800906385,-0.002715701147061988,-0.003032690509245659,-0.003394464892614107,-0.0037962374653197754,-0.0042140524758206175,-0.004521360287348617,-0.004734432692137692,-0.005061877047711883,-0.0053317015959500015,-0.005462302415901289
-0.007691087768445624,-0.007553315944024289,-0.0062101837122165,-0.0037459843537106657,-0.00043408569819299557,0.0023126351950676005,0.0040369530863513855,0.00487628228259339,0.005383334197916439,0.005687486007215525,0.005710002975128898,0.005582952441865031,0.0053349373502210255,0.004959450918980118,0.004568160146118337,0.00417071505733457,0.0037488544934228484,0.003400667746921453,0.00309193622736468,0.002720450577245913,0.0020875826112572533,0.001471284814701799,0.0011869216731764235,0.0007873832025804136,0.00046559762173494434,0.0004565987200892799,0.00040607281361296617,0.0004116834744191584,0.0005784500463904247,0.0006793978797082515,0.00064980740950829,0.00046800250195059076,0.0001564417990795165,-0.00013219068001793152,-0.0003438331079230067,-0.0007246749626116482,-0.0011710014772312056,-0.0016322877118380133,-0.002249675761642274,-0.002819684980355389,-0.003257461383339692,-0.0037195444168791826,-0.004094377651272683,-0.0043808145303613115,-0.004781918468571388,-0.005220565527313859,-0.005664066047479766,-0.0061401293108431405,-0.006487567088437314,-0.00663426924190938
-0.007383943801930014,-0.007388711606462907,-0.006172870672007639,-0.003644752416130281,0.0002699548372669919,0.003314091166106983,0.0051000275048479204,0.006479542693405053,0.007196504693313667,0.007340448224235966,0.007251682675468643,0.007026601049095176,0.006689185361007722,0.0062387679292689865,0.005703164449164171,0.005197241649900302,0.004856299460760638,0.00446192255182414,0.004009425444542587,0.003552672640525918,0.003022641044425511,0.0024113947868203817,0.001780924644839133,0.0014982420762925373,0.0013691996885857984,0.0011520411538715229,0.0010718470625274844,0.0010176445690701294,0.00087984167031927,0.0008195610244172255,0.0007884902299958594,0.0007163613689183501,0.0005560376058133087,0.00023421398286875572,-0.0002649817644517513,-0.0007948885641881417,-0.0013383850568530584,-0.0018944578734371425,-0.002459842550209302,-0.002975911472482483,-0.0034325907411330106,-0.0039155891386034244,-0.004407207898310939,-0.004898993647980132,-0.005404671784832377,-0.005859361792891739,-0.006233527840105884,-0.006538147401528771,-0.0068579008467637495,-0.007230006601009876
-0.007433811015138069,-0.007323135626920447,-0.006139628295444819,-0.0038304878149721133,-0.0002035300102131448,0.003109399537602875,0.004886502375755506,0.00613123612322039,0.006945498914090676,0.007217161304970281,0.007277410370008815,0.007217909189913097,0.0069856872859410815,0.006678977892323157,0.006339070074023233,0.005881974492660542,0.005355786337877888,0.004825126857939675,0.004308033831305553,0.0037982350862993696,0.0032718212076136757,0.0026428027743944397,0.0019610092098205764,0.0015091789761306567,0.0010847087651237367,0.0005864300397155138,0.00040149019403686373,0.0003974543592695835,0.00032195485392856393,0.00036552037258629465,0.0004953556230394583,0.0004945618806191592,0.00031501670812876797,-6.6914912031734975e-06,-0.00023373153317776763,-0.00047798017211672796,-0.0008699759990626295,-0.001418997583983231,-0.0020090431489152563,-0.0024554721118575707,-0.003068874932541943,-0.003838433714634512,-0.0043837368206864746,-0.004884264209474282,-0.005443704034846162,-0.005900732536984286,-0.0063023377060438274,-0.006733662575136957,-0.0071955375442757435,-0.0076881374270459475
-0.006980526378818168,-0.006463331629417857,-0.004675016263482809,-0.0018940536439079685,0.0010613046737303546,0.0032793282506450292,0.0044956037721024375,0.005406075534643816,0.005992371500267231,0.0062394877966940945,0.0063168538738036135,0.006166858005139981,0.005771071540697206,0.005391944908017934,0.005032831224784433,0.0046625998555603594,0.004346682790304165,0.004081153334846101,0.003838830526945197,0.0035782002720611853,0.003259974823788889,0.0028324788647572383,0.0022530820049034275,0.0016602921045988312,0.0013602685826932268,0.0011676671200174518,0.0009883151194634825,0.0007792672477921808,0.0006857405361054712,0.0007377277635023248,0.0008036659428088601,0.0007958016283202488,0.0006530116701831895,0.00031713893063964197,-0.00015005996372001516,-0.0006709683912152581,-0.0011093465178468951,-0.0015176491286595624,-0.001968158192630325,-0.0024952944963176,-0.0030989015788999196,-0.003746909870620495,-0.004233966727646402,-0.004597459937530235,-0.004957396501968486,-0.005249512406030776,-0.005514334806252036,-0.005862549721617918,-0.006301134453218893,-0.006831637018846144
-0.005797277623897719,-0.0055047482069756565,-0.003967167454504648,-0.0016498115305437517,0.0003904897079190606,0.0020467733023845514,0.0033049736081990832,0.004181040242159652,0.004614424410489777,0.004678920162491986,0.0045505279624745345,0.004277811808502856,0.0039385390202459295,0.003639383201292763,0.0033770803735737754,0.0031724444065197137,0.0030392554461512863,0.002808434477833995,0.0024820721957507196,0.002127458911705719,0.0018321597208120623,0.0015549076442183231,0.001242736090938584,0.0010189267185344265,0.0009364297695149615,0.0010024853600988216,0.0010707760357718749,0.001007104254356435,0.0007674769449573605,0.000668254612516617,0.0006221662373860832,0.0005159179533263708,0.0003443125576718886,5.175734077058479e-05,-0.0003609660198991262,-0.0007161288175549738,-0.0010507093630917686,-0.0014173571447268186,-0.0018684122794808107,-0.0022660769254524765,-0.0025663713213672974,-0.002914985107090734,-0.0033419795819902096,-0.003773895021836745,-0.003965777393001624,-0.004295750868051058,-0.004786707224563871,-0.0049769785019589926,-0.00521542657567255,-0.005668577041220598
-0.005462232571594251,-0.005377662527103264,-0.0049874768704124516,-0.004023678196034432,-0.0019443272559719982,0.00017581469725356624,0.0019184745436276233,0.0032265397406473976,0.003966001553332837,0.004288420311718522,0.0045353063052212,0.004517321483110564,0.004333263765038432,0.004224582339210361,0.004015494794777529,0.0037758841043013104,0.003656504368647164,0.0034509851328368077,0.003191162736086307,0.002978788532245288,0.0027673864145055654,0.0024006436434714064,0.0017650075567349104,0.0012749333710242016,0.0009518043281221445,0.0007201186445857953,0.00048668281813163373,0.00040137062148761014,0.0005310042303559391,0.00040220225338824967,0.00024023671086162416,0.00026845459044056076,0.000371361078042872,0.0002677366415514777,-0.0001388922911247523,-0.00041161983764721684,-0.0006547618417396869,-0.0009686989703414832,-0.0013409249584071042,-0.0016770325273684317,-0.001977329251933303,-0.0024337566053872447,-0.002965691175484197,-0.003486905281494582,-0.00389630834758613,-0.004273289358505301,-0.004639209098486242,-0.004935896323056251,-0.005174015922803032,-0.005359805550704407
-0.006773072686971009,-0.006568920893521523,-0.005080537634048542,-0.0024624956541086703,0.0008100588711167624,0.003319649426822178,0.004579930942446602,0.005500512634771479,0.00615342765675501,0.006520741003477148,0.006547541639960719,0.006258897646455149,0.005729107307128533,0.005228378911495953,0.0047573887572029,0.004284764741093335,0.00390432566441029,0.0034599729376032858,0.0027514452316836162,0.0021173292457834776,0.001609062086690794,0.001159982075420549,0.0006433747333422639,0.0001555383198833537,-2.7339719406205916e-05,-2.8675756591684972e-05,8.493707636137546e-05,0.00027162829362885023,0.00045073942869278615,0.0005514043422341183,0.00047025280888145487,0.00034947047205023977,0.00025092341675281456,6.592196671881311e-05,-0.00017312022549182155,-0.00044027608545988366,-0.0007681341235510004,-0.001179162235872666,-0.0016960859147098805,-0.0023560332326231946,-0.0029738638473807526,-0.0033593842055733955,-0.003844078178218817,-0.004395217777760304,-0.004858638720562827,-0.005317096770722543,-0.005731591800799291,-0.005999882843836547,-0.006364238796391619,-0.006910099655271829
-0.006425487748709648,-0.0062348022250596465,-0.0044925301353510175,-0.0016909372608579832,0.0010188094869342868,0.002961528263961564,0.00408195007895696,0.004747811568877424,0.005197892727176452,0.005440559894562144,0.005372340685262178,0.00519887254781615,0.004892126662264881,0.004340313847589581,0.0039035431315432717,0.0037012112420603503,0.0037151095664690347,0.0034632648072466738,0.0030723444748120103,0.002826898344528692,0.0024501458232181602,0.0020389509769394927,0.0017603674118892986,0.0014898342669835915,0.0012429195898670295,0.001082311176753103,0.0011355504346474278,0.0012461386752351524,0.001263340225349964,0.001275785453451212,0.0011681673636604623,0.0009016445564050542,0.0008012223970717231,0.000555593243325683,-4.3759348356314835e-05,-0.0007549875615255854,-0.0013223123986469407,-0.0016895858500298407,-0.0022234750090186265,-0.002633578451399079,-0.0028479088679386555,-0.003289159778136609,-0.0037069765654369723,-0.003993086191669449,-0.004291033142233734,-0.004535814151809299,-0.004746314192402843,-0.005074487187408391,-0.005447992661302812,-0.005830836116830247
-0.004176648471504723,-0.00402383801202096,-0.0029109193758305903,-0.001132627701608421,0.000623204306839718,0.0019762698843168204,0.0028921449663677585,0.0035525859711776258,0.0038433448152994047,0.003794228193641424,0.0035469010178247303,0.00328757313765438,0.0030586102693086967,0.002842273208081372,0.0026464578461492584,0.00250191256924995,0.0024272480856123795,0.0022103962462770993,0.0019382704159998578,0.0017841679676797396,0.0016760291522230951,0.0015023398595438347,0.001167920176017298,0.0008049751694397997,0.0005604702792371086,0.0005382300849881398,0.0005833175116606837,0.0006488914513770925,0.0006998556428029997,0.0006548512465780716,0.0005936152981275513,0.0005757133438901456,0.0005183720686382167,0.0003396254577328061,5.01407532287654e-06,-0.0004037654446604623,-0.0007610212906741223,-0.0010248266508789063,-0.0013323400589119226,-0.0015940248824900943,-0.0017975266094206496,-0.0021120933410021833,-0.0024794694339508837,-0.0027933426964357813,-0.0028602274988262597,-0.0031017763435022385,-0.0035732224709151736,-0.003839085398069907,-0.004007474423069032,-0.004137606275608755
-0.004248717012668364,-0.004342151909034089,-0.004171770764765884,-0.0036718166789424106,-0.0016481443308320972,0.002024637138123878,0.005117242597639416,0.007188277287496794,0.008196220197780674,0.008466389125602164,0.008603875726091012,0.008656294135855447,0.008650414716714974,0.00841832050301612,0.007908973715560744,0.007408739305669219,0.006952966815076077,0.006373848422052788,0.005688935194066358,0.004988232272059516,0.00429514005880772,0.0036316828748541147,0.00283519451141921,0.0018259966137869968,0.0009059955577228523,0.0001608757185201243,-0.0004893771529084787,-0.0010572783413394053,-0.0015403264243537438,-0.00189233400814015,-0.002039348677617883,-0.002157626321304291,-0.002381552754229268,-0.0025055972056428942,-0.002466089680960244,-0.0024525905173098882,-0.002495616586417227,-0.0025499835795667674,-0.0026034162129594325,-0.002639949702294063,-0.00271649105019514,-0.002894589343984009,-0.0031645515722370605,-0.0035109725790751166,-0.003814751383627223,-0.004058253965686286,-0.004328319734188176,-0.004625965521165672,-0.0049205278695715286,-0.005210318263048517
-0.005707541185892209,-0.00555323764243261,-0.0055746530188306494,-0.005477623190305316,-0.004393248803319106,-0.0011608682220923157,0.0038067458912329905,0.00694007065927623,0.00838531980588215,0.008665617117691895,0.008743485295344515,0.00873831513773154,0.00863907212868762,0.008363535419360652,0.007825295115910538,0.007010650921354171,0.006389655326065342,0.005800934173486487,0.004923672098033048,0.003978129499866111,0.003008198181242642,0.00200392611224406,0.0011013879706146883,0.0003056502003584537,-0.00045646371453619394,-0.001082243781492106,-0.001479908205905563,-0.0015247964476171596,-0.0014271948148938222,-0.0013041130789082905,-0.0011976761333521478,-0.00116389380081164,-0.0012164916495641708,-0.0012854446756049415,-0.0014651448424432367,-0.0018123531581928348,-0.0022331673405342712,-0.002709638016537035,-0.00321612719580922,-0.0036191673635462074,-0.004054426597514102,-0.0046692491782213685,-0.005098568167351823,-0.0053953829123617476,-0.005749893774673031,-0.0060137646647624495,-0.0061464199056074685,-0.006159506509993071,-0.006189779408471071,-0.006284910341432497
-0.006468801121757351,-0.00672454139104047,-0.005208320949185388,-0.0020997950196597606,0.001713153557588819,0.005045657833871672,0.006500595166108603,0.007179751745918405,0.007563147017817548,0.007906787148092008,0.00801521801677913,0.007722873679995162,0.007406743578159233,0.00714902870895895,0.00691032177617693,0.006476272414077845,0.0057763196824230575,0.005240647433284987,0.004841516449461493,0.004395381499977181,0.0038324768154443965,0.003144086283038338,0.0024252252992828594,0.001631957390616493,0.0007196831750432459,5.104103200719831e-06,-0.00046784198695072295,-0.0008809146533189419,-0.001126415654087388,-0.0011256924571410264,-0.001055192546290979,-0.000994932021661735,-0.0010294270321571889,-0.001052493433322077,-0.0010301778202065175,-0.0011249329666823446,-0.0013516674643889053,-0.001695224166459591,-0.002175675176452505,-0.002759056281022023,-0.003281738412178899,-0.0037634766049126018,-0.004251073977794486,-0.004842716962345438,-0.005502459587492489,-0.006053575770985053,-0.0064411325469687,-0.006651761422407881,-0.006828168407480488,-0.006999228798560307
-0.006002196799812266,-0.006208927954940434,-0.0047779300106772955,-0.0018221313268654362,0.0021003593428929254,0.005735830193882927,0.007520465304978831,0.008363065832869526,0.008679799880707653,0.008748454618726339,0.008720697500454759,0.008683911501424094,0.008310128808594348,0.007696426292479074,0.007284228095297851,0.006838778981734204,0.006219499479707905,0.005582729878076946,0.004887488531652769,0.004019118323490314,0.0031145936206081804,0.0022159910826547685,0.0012287392136884514,0.00028530843801736615,-0.0004348892018795761,-0.0008559926391211037,-0.0010399793443994546,-0.0012521281262269654,-0.0013546232708550059,-0.0012455265120674649,-0.001155723638681683,-0.0011266418402527546,-0.0011341171401162398,-0.001222258042715671,-0.001395176986448324,-0.0015305088378582293,-0.0017032746898403674,-0.002051122100790929,-0.0024044324084212696,-0.0027431370532299136,-0.003260851214180639,-0.0038782402621911926,-0.004477598983253083,-0.004912374546449776,-0.005187905814056886,-0.005435869227282799,-0.005759724819028221,-0.006190481047329002,-0.006440584910316152,-0.006451852606608158
-0.006017469635947679,-0.005861597706396478,-0.005861774478133372,-0.005969991805315968,-0.005975196415264482,-0.004130812880498864,-0.000300177139793536,0.004357940983764158,0.00756888052945183,0.009048747181039138,0.009644743570917836,0.0097365217380103,0.009588419538202943,0.009428690698002817,0.00890637687838438,0.00806797199630463,0.007141935941871558,0.006312867787592156,0.005450323512715552,0.004365424438152326,0.0033862103603990125,0.0024212392895725915,0.0013284062612648555,0.00044441780411478855,-0.0002536255634096062,-0.0008576222903475283,-0.0013700029935669752,-0.001732619059890392,-0.0018987617863052751,-0.001913570038030618,-0.0018842658220418035,-0.0018868987349988597,-0.001882978300314479,-0.0020487344496684943,-0.0024443480086539585,-0.002749948894445338,-0.0031074242437759453,-0.003617741804079194,-0.0042076822042905245,-0.004743510867137119,-0.005173923432830908,-0.005584438121043322,-0.005940654017146953,-0.006203992068871081,-0.006330058818844132,-0.006479418170641933,-0.006675586787742131,-0.006763380224260663,-0.006808504420293002,-0.006844099590800112
-0.006273140916289577,-0.006185481937410231,-0.00493186929406406,-0.002822319737062442,-0.0004381338771222991,0.0020175381603809214,0.004257066834884518,0.005948828393242921,0.006832487271247206,0.007197134960177155,0.007291985442609165,0.0071183836293416064,0.006748707796861358,0.006258473772268821,0.00574931653449252,0.005308206351234037,0.0049415160929190275,0.004585941785961175,0.00400729661600227,0.0033385986760454027,0.002771486059694488,0.002284847806345202,0.0018063002598255893,0.0013782373139685062,0.0012852237543125992,0.0012274320124808175,0.0011352074775094617,0.0011517271887474805,0.0009544231666989297,0.0006102499357699052,0.000347767172483538,5.1156382592926215e-05,-0.0002998763286303083,-0.0007052483136493039,-0.0011776796115350533,-0.0017206727546836419,-0.002348989264967572,-0.0030885439199699414,-0.0036207160037319006,-0.003983418936374992,-0.004490826280945527,-0.0048837940244382165,-0.0051333450297785825,-0.005320573376306995,-0.005588215958051783,-0.005873346496938382,-0.006140122212116,-0.006539605328373735,-0.006836284380007348,-0.006890775366910232
-0.007038361222062013,-0.0069172558042160425,-0.00542433884516583,-0.0029815447019957107,-0.00036205941323863507,0.001481414115837305,0.002815580578218591,0.003955230883306262,0.004954246042034917,0.005619800331390861,0.005969972847869745,0.0061171824995487145,0.005986761346542552,0.005809245435146485,0.00566353061482224,0.005303984742085132,0.0048741212977161325,0.004480402685736443,0.00415703242758483,0.0036635520671357154,0.0032536412929515626,0.0029923405152365423,0.0025038293838714957,0.0020957751821373827,0.0018544962715414104,0.0017401703132765578,0.0017618888638018465,0.0018046327312529955,0.0017723102585487681,0.0016129580846360177,0.0012328023340539437,0.0008066198424149509,0.0005644183908949897,8.902789852445148e-05,-0.0004629553770680938,-0.0009651111105653478,-0.0014979813312594274,-0.0019974857005144947,-0.0024461250691004206,-0.0028738170734750757,-0.0034023095170135635,-0.003901330984551579,-0.004266836373643601,-0.0045060523922368055,-0.00475830674137852,-0.00506966766232645,-0.00543834571765308,-0.005870640524937251,-0.006271925975381571,-0.006576430353643575
-0.004267133913156913,-0.004269503821942879,-0.003811511442572529,-0.002787394706720938,-0.001352118863984619,-0.0002315947596650441,0.0009791129358985452,0.002099452131005362,0.0029087751008078392,0.0035023885725904147,0.0037168944611837267,0.0036839801839211863,0.0035594689645048984,0.0033940461785535053,0.0031722918325352576,0.003018562669886274,0.0029141748568026677,0.002612773427480291,0.0021205874079393925,0.0016652858555472106,0.0013654559133989951,0.0011713000096518046,0.001089085726785528,0.0011655397518974726,0.001284813434042293,0.0011962358306180675,0.0010103663299328778,0.0008582721233792929,0.0008102927600838976,0.0008373207451157599,0.0006833434855817645,0.0005111203428562709,0.00029523173838087106,-9.738257725273063e-05,-0.00038338633230786416,-0.0006306539244867063,-0.0008988009250097348,-0.0012217905548998899,-0.0016515335974794383,-0.0018564233139930389,-0.0019442322040074365,-0.002179618522507376,-0.002364508352474496,-0.002537458307724491,-0.0027050013102214365,-0.0028485358467654977,-0.0029701974197069497,-0.003143617346327934,-0.0034158744397765435,-0.003810715211557938
-0.005373433488144147,-0.004897467669893216,-0.0034245065924155115,-0.0014936418986068241,0.00024093434561942234,0.001693662814510396,0.002852001274391918,0.0036618266364098428,0.004091116711018085,0.0044297398545604105,0.004525942130149277,0.004404820094431285,0.004339473469835109,0.004179787809599443,0.0040018116792462435,0.0038438459830554507,0.0035719421075217244,0.0031502900089997814,0.0026547211189633033,0.0022224533438460225,0.002021889193979005,0.0017947913831136086,0.0015482502570920557,0.0014573043659123134,0.0015645304980639702,0.0015628511825957585,0.0014202328755226852,0.00137799189003753,0.0013647443104455566,0.0013010130957874745,0.0010943764766381695,0.0006421141218515325,0.00014494203725600892,-0.00024205525014773626,-0.0005013401387199288,-0.0008905485996586797,-0.001338556757653665,-0.001783527942286485,-0.0021680033920526854,-0.0024065221802516443,-0.002670809098170045,-0.0030070622796213703,-0.0033210438479167807,-0.003461767129692275,-0.003577163115444565,-0.003778185771788737,-0.004066509984279776,-0.004431479245936792,-0.004764101496472139,-0.004973852239954568
-0.006196608693069822,-0.0057993855809537545,-0.004711816206122612,-0.0031135297115682118,-0.0015180441308127084,0.00010817744488227538,0.0017620157559719177,0.0033065995033380964,0.004607190076659071,0.005577426699133205,0.006195663796412606,0.0064856369219490236,0.00651530181754795,0.006544084798340292,0.0065213699024093165,0.006335845893687961,0.005883394486409012,0.005286152932289606,0.004718897783399547,0.004011804035532029,0.0032548444735695523,0.0026607192393229505,0.0020879323509527467,0.0015352870631235877,0.0010965976471313263,0.0008058263084633363,0.0006518813660763311,0.0005730201237290688,0.0004999590428124053,0.0004215639119004446,0.00040231108626574675,0.00035702540149178173,0.00023320314182529272,3.522727277665871e-05,-0.00022340230283021431,-0.0005564811023964877,-0.0010814542494158204,-0.0016557373783952058,-0.0021398130656680838,-0.0025955785107622683,-0.0030362413201233084,-0.0034685485434357327,-0.003926523087519393,-0.004390398986308733,-0.004823594740429162,-0.005278882397077633,-0.00574496995716002,-0.006171410823628033,-0.006536221297692286,-0.0068321281583529365
-0.006194373036022291,-0.0059066260844057444,-0.005110601398998773,-0.00387629100248481,-0.0023710470386192335,-0.0007534004660003459,0.0008673164510941252,0.0023624645483543826,0.0034822968514508093,0.00429807754193937,0.005068828848605607,0.005571512860349504,0.005806198504186921,0.00588215945987065,0.005784487450185473,0.005490597593988777,0.004994295343979224,0.004481036181260622,0.003916378051878919,0.003225641914136785,0.0026373388309961147,0.0021505789913615955,0.001718736838947669,0.0014228806208401966,0.0011767494625189723,0.0009109144017272872,0.000855372286048164,0.0009540433251050107,0.001096386263232023,0.001167212763031041,0.0011286051833589751,0.0009935605977525854,0.000906343251169329,0.0007007369216191193,0.00030278962416506027,-1.3754630051679544e-05,-0.00032224624200753325,-0.0006879072468952052,-0.0010918741917532628,-0.0015122583509431342,-0.0019309706643853214,-0.0023281862696670403,-0.0027307680933764977,-0.0031167523992714275,-0.003375944009724843,-0.0036848987479798897,-0.004102939466650625,-0.004539832453012665,-0.004897088621717123,-0.005133436925952857
-0.00647830146681864,-0.006196162424093692,-0.0053272529601658064,-0.003968077766003716,-0.0023093339315742784,-0.0005056658956528717,0.0013084896352260652,0.002968612439768558,0.00419737092576014,0.005054849019299118,0.005651544717748993,0.006104947228082697,0.006412419565533756,0.006501160061980779,0.0062337596124288144,0.005962656236863891,0.005732472632451208,0.005408690086832127,0.004902302545331692,0.004254275083764549,0.003567881898039671,0.003042584772459037,0.002728294712764313,0.00257844093193631,0.0023890583097639843,0.002141404031677144,0.001929002807068451,0.0019413345148027426,0.0019323355573461999,0.0018324247944868095,0.0016584077648786758,0.0014555521603273726,0.0011135082126621071,0.0005811825173620414,0.00013465464361418978,-0.0003430425548267204,-0.000926184410142816,-0.0015550033378493996,-0.002102715341508023,-0.002591122466118498,-0.0031440897083025686,-0.003542329004909055,-0.003959839506242701,-0.004638875124387855,-0.0051431397799661625,-0.005456704384635275,-0.005706388224432929,-0.006192677107939509,-0.006713663192546765,-0.007139752828641779
-0.01103261479949274,-0.010922772737256671,-0.00962783679622927,-0.007117934667160144,-0.003933755241367619,-0.0008191974179687605,0.0020359804604268943,0.004557678599842,0.006383124263840204,0.0075646951853564496,0.008347630001428059,0.00880509725015601,0.008947642545991176,0.008729533393612396,0.0080989203767681,0.0073785167428771364,0.006610656495678495,0.005793372115019477,0.0051734556923060514,0.004554656217289054,0.004550933949628014,0.0043653678096328375,0.004332482667697802,0.0045149941144661315,0.004588090572944929,0.004594551102353519,0.004439795675555408,0.003867608064651642,0.003100373204079204,0.0023697223999642777,0.0015692432194384053,0.000691945052075034,-0.00026398241514351576,-0.0010113659279545276,-0.0016837858667255099,-0.002546852054627349,-0.003480440642102578,-0.004105826408444815,-0.004492905216658713,-0.005170290698393664,-0.00566864728023982,-0.006030157412783709,-0.006481806368616567,-0.0068174066710539605,-0.007282299259772496,-0.007843568567924866,-0.008280211686578751,-0.008768003542748759,-0.00948976155319675,-0.01010037423948184
-0.009938666684765746,-0.009828526058937267,-0.009001096264862882,-0.007509866248425866,-0.005478476537390557,-0.003160957369963858,-0.0007262019342102091,0.0016534351317288448,0.003719763522262284,0.005287166679164604,0.006332401712116121,0.007170814148770084,0.007781998965511162,0.008149682307863122,0.008290442375703214,0.008141524838527092,0.007761374324466009,0.007284519247730835,0.006747418869026648,0.006093948664378344,0.005282532475669532,0.0044449453623177475,0.003637241178032489,0.0028973742074244932,0.002270493177938371,0.0018853747493753912,0.0017306482531567967,0.0016478206804826775,0.001533099126790752,0.001402290161284027,0.0012827728485753007,0.0008895081079646157,0.00036793736107099264,-0.00011442559531515523,-0.0006608932695724511,-0.001213621000169484,-0.0017946314259366925,-0.002585271278927465,-0.0033015040508937122,-0.00391820712714221,-0.004614540717865136,-0.005246634143817642,-0.005839188509201267,-0.006491097619044151,-0.007280371415240678,-0.007943473195834218,-0.008328408887997645,-0.008767325937105296,-0.00928658581539911,-0.009881175893560171
-0.008798869619507644,-0.008696082092110846,-0.00781942945447493,-0.006272390759792785,-0.0042993875510104525,-0.0020837794669827745,0.00019158286077102752,0.0022703106622319466,0.003986826294132789,0.005365715117628797,0.006535993982917313,0.0073727874369049744,0.007821465332701139,0.00788800890438268,0.007926858257470509,0.007904798856756778,0.007637678046894531,0.007158450154270416,0.006490040373930664,0.0056546171472547195,0.004671478952752502,0.0037399661296209576,0.003058759739198178,0.0023956531843985014,0.0018741295963989341,0.0016193261448613858,0.001317257683683074,0.0010571113318478436,0.0009453583453242142,0.0008391036423188106,0.0007209173003994727,0.0005678455746919805,0.00025673770388269003,-0.00017763941131819017,-0.0006809261190241847,-0.0011839351200854972,-0.0017074683650125347,-0.002277790814605414,-0.0029203359843366214,-0.0035481866219901938,-0.004107813407480989,-0.004603171633510728,-0.005134705943450395,-0.005759169932345815,-0.0064771279814945905,-0.007073307432849459,-0.0074759795923763864,-0.007786033417113632,-0.008177448386776339,-0.008724652203177113
-0.009895785597601956,-0.00922947573079676,-0.0076468698988357104,-0.005375241248257599,-0.0027632041317781175,-0.0002079611554559036,0.0022997562851881934,0.004619368808075739,0.006534426710018361,0.007808467131699872,0.008469250247963238,0.008859997124068549,0.009168504838348357,0.009239977817333626,0.0092254436377138,0.009055906039921504,0.008599147795144514,0.0077827446260326175,0.0070577184113824465,0.0063335074684821475,0.005570274331077742,0.004926608829939957,0.004386921461824877,0.003908681227379558,0.0035565205313184507,0.0034564801144501786,0.003372085247902141,0.003060076976210328,0.00260997582431146,0.002305497182188066,0.001847297860013689,0.0012411577123319106,0.0005690984596666698,-0.00014377480443252395,-0.0011917346409203694,-0.0020876713217284305,-0.002804806508386367,-0.003604605248134426,-0.004353534985408972,-0.005106925231961294,-0.005843014809165143,-0.006451253702926047,-0.006776965573108746,-0.007257494025577551,-0.007898570043281703,-0.008506754901194517,-0.009058599610070687,-0.009498664917508618,-0.009848971671682775,-0.01015157659941199
-0.008511354639159953,-0.00800819479013558,-0.007034044057799449,-0.005563603194995928,-0.003503989755414993,-0.001264381458667173,0.000799518339934857,0.0026253013074688794,0.004218860775091116,0.005603127921070615,0.006716764015424006,0.007555076459188143,0.008159075573476612,0.00842814849684425,0.008359010942648288,0.008218308492198376,0.007988628007133437,0.007601207338365971,0.006927848934818816,0.006042341948944084,0.0051459771822302165,0.004280188586936757,0.0034682966876673515,0.0027365392160124007,0.002074195615887409,0.0014918514848206552,0.001109573081784625,0.0008187113655461256,0.0004638190018083762,0.0002880859956320929,0.0002530384093337577,9.174425063943879e-05,-0.00020820516723564798,-0.0006078949994319747,-0.000943350071118419,-0.0012464452193187865,-0.0015697478390032627,-0.0019586699809223166,-0.002406125244507298,-0.002887655730705522,-0.0034812043274412173,-0.004189476288309431,-0.004932211743617162,-0.005636346255771395,-0.006258664486895337,-0.006805776677336006,-0.007314372871800387,-0.007822407926996166,-0.008275319816197259,-0.008658364068104909
-0.009551635298447606,-0.009089546705802608,-0.00786500343001213,-0.005983728546271551,-0.0037554520227134082,-0.0014862544507855794,0.000688204324011115,0.0028285769629232318,0.004716822037373572,0.006210295933978132,0.0073346561383141615,0.008011822385758777,0.008247337134191485,0.008454231130442733,0.008523459188367893,0.008293059134287016,0.007928904347907854,0.0074173209053890726,0.006709125920116866,0.005938325440503031,0.005111472486910012,0.00419371346632199,0.0033308899370245813,0.002565958194612268,0.0018929910180985274,0.0013166693730872082,0.0008672089680878904,0.0006136246820790093,0.00043139274994051757,0.00026969723564455503,0.0001630245036748843,0.00013530925473378776,0.00013458802006624315,-9.525083768057288e-05,-0.00039355888845820687,-0.0006678426564739484,-0.0011510504145621106,-0.0017431823159473998,-0.002319422183932555,-0.0028750335817869163,-0.0034252532953573996,-0.003986917248114977,-0.004539649509110531,-0.005123851346749967,-0.005788865588330248,-0.006327050947245554,-0.006790051361399159,-0.007368861834880384,-0.007820413418894372,-0.00805827383724351
-0.008604426930493876,-0.007467146304633529,-0.005578782655057237,-0.0032047614369927705,-0.000748900699903399,0.0013844999509946923,0.0034083524843307855,0.005141452653998916,0.0063692072288399435,0.007101771527197291,0.0079064709755028,0.008223313802768327,0.008334698603431251,0.008502007885973495,0.00836198646469142,0.0078814225908604,0.007300434035279132,0.006636305728732086,0.005775466288401427,0.004982796713815113,0.004288031833922133,0.003766278653308795,0.0034996592655057294,0.0034709794872848088,0.0033213112854916568,0.0031482456837624365,0.0030213140909882393,0.0028570976271971435,0.002529546113524762,0.001984933801908682,0.0013215851033871033,0.0006869120123194276,0.00012646532155425585,-0.0006954460713746594,-0.0015831787105204196,-0.0023912744932073427,-0.0031682178933342387,-0.0038519876767716776,-0.0044561034876247265,-0.0050983265202855866,-0.005793687132950177,-0.006226576654844412,-0.006784389924370957,-0.007430914447821317,-0.00803547269238915,-0.00853540269045603,-0.008911268121291827,-0.00922768706909028,-0.009674930451629378,-0.010458782199346178
-0.008680422428752655,-0.008283384388595508,-0.007034688557128098,-0.005038228618835647,-0.0025857544224341346,-0.0003761904253763707,0.0016476291434810934,0.003568720222912064,0.005312159653299299,0.006235770278044669,0.0069139473600242675,0.007562832091387495,0.007844314809632158,0.007932423638918993,0.007849820438837578,0.0075391732107791395,0.0068918284084109925,0.006074163760811683,0.00524209233105466,0.004501465728113829,0.0038359573420392442,0.0032956982302285347,0.0029211947213956336,0.002735141579429411,0.0026995329856918005,0.0026057059825373144,0.0024240641087394685,0.002284860034098675,0.0020731088228287974,0.0017524320796839716,0.001358128887559447,0.0009856016242787828,0.0004486010942504101,-0.000275676271486398,-0.001073704886455489,-0.0016728622885189334,-0.0024368879962023532,-0.00326414145741772,-0.0038749937487236115,-0.004420976707548566,-0.005000116454553607,-0.005588658323729137,-0.006094764263653124,-0.006612785961214835,-0.007053180809588527,-0.007413904715282386,-0.007841513363618092,-0.008295960858530495,-0.008703302109192713,-0.00901010146943095
-0.01116628463098404,-0.01069644238150044,-0.008882105284048375,-0.006045011893572391,-0.002654494670618566,0.0006935557737995034,0.00351924018972675,0.005813680308539019,0.007555148708175541,0.008697828889975905,0.009303522492394542,0.009493900257653128,0.009516421582445957,0.009514873103460825,0.009249290553593473,0.008742979299319968,0.007879333494104255,0.006894423907580816,0.00605432157465708,0.005348064414447615,0.004769958321405525,0.004669888095081172,0.004779826383246112,0.0047374274864864325,0.004720211451324216,0.0046582883458601764,0.004509136189786234,0.004224987654963149,0.003467028370053031,0.002518462824481498,0.00162275451586728,0.0006197245843376234,-0.0003217140202786955,-0.001259893639108554,-0.00229189975129829,-0.0029615568964915006,-0.00375838880372629,-0.004490123534138399,-0.005329809213242622,-0.006055431831911247,-0.0065597787929324945,-0.006996209867173146,-0.0073888296228416155,-0.007992813272962402,-0.008525045500157322,-0.008959014078292409,-0.00945151228803074,-0.010123376186494013,-0.010842124405370825,-0.011216288033972338
-0.00955375468198616,-0.009311224829605384,-0.008002261157043342,-0.005827804426929438,-0.0031536139563882776,-0.000473051608203057,0.002031347038072207,0.004058342782411768,0.005642829698682032,0.00695752766537317,0.007771769091284692,0.00836234933590658,0.008572433186772869,0.008377717817853087,0.008217841651744058,0.00791522478226128,0.0073045253365283894,0.0065401619277723365,0.005897973908512226,0.005104098007730956,0.004427272865699074,0.003914256384541626,0.003503128556932537,0.00319370091102598,0.0031538295159910597,0.003204871828432966,0.0031227217726746983,0.0028052002236676732,0.002539669783860539,0.0021883324682964145,0.001728113528027456,0.0012102645321459173,0.0006402982066960075,-9.57198665677673e-05,-0.000985567778379994,-0.0018436582809347127,-0.0024468291758801383,-0.0031647222665253665,-0.003733328182881299,-0.004169995061424984,-0.004599525210968938,-0.004901961013569691,-0.0053948733965977205,-0.005843812225809115,-0.006178820075952728,-0.006671288156699169,-0.007066334700290006,-0.007611525926347,-0.008176197318261962,-0.008424718069711616
-0.009958401613513173,-0.010006650363005312,-0.009059099611643608,-0.007284573744155743,-0.004950318884231344,-0.002351787091884612,0.00024344806701174484,0.002635004633872455,0.004646244384988195,0.0061694590700721065,0.007298785175008352,0.008143377149784851,0.008766418276126592,0.008899109260813252,0.008797152265965344,0.008670705535966125,0.008433879361398906,0.008116234080644012,0.007639709431804104,0.006911717099055618,0.005951217056256654,0.00508451934384119,0.004402705748548193,0.0038538184543353803,0.0034375503909575673,0.003117817642975276,0.002818103369870732,0.0024651793513521913,0.00232640875523713,0.0021975258454394746,0.001893797454520236,0.0014141533330028191,0.0009101686833481901,0.0004361834511901176,-9.309506095273689e-05,-0.0009940445220548264,-0.0019766937101672014,-0.002857179391621709,-0.0035712605501110662,-0.004248388658701838,-0.004885470556100637,-0.00552069395071959,-0.006200471612854981,-0.006696913849849527,-0.007157576472817312,-0.007673611938259488,-0.008184191317971067,-0.008710175836948086,-0.009211932795680663,-0.009650935704670037
-0.008308299897065349,-0.007815334927244184,-0.0067986195681784215,-0.005302272988919356,-0.003422877567657823,-0.0013193148555731727,0.0007660676313594627,0.002592335234937795,0.0041633372755927895,0.005431356203055386,0.006338718379085166,0.006816344661906971,0.007150505027394088,0.007443744480385725,0.007583139004941589,0.007485582604924764,0.007158320025207322,0.00665412060751831,0.005958730934323883,0.005101665781095651,0.0041650008217609166,0.00338741098743394,0.002777617635890419,0.002336321273773409,0.002109082678157339,0.0017777166862481097,0.0014083986391188804,0.0014331766327533785,0.0014001726326585457,0.0012003317368272071,0.0009045453659846177,0.0006761371160074246,0.0004056398601417133,-2.1340139042404478e-05,-0.0005164837319425522,-0.001003671570618109,-0.0014705951369669182,-0.0019998853216414017,-0.0025909349654368924,-0.0031643962918725056,-0.0035911657668739974,-0.00413425636246894,-0.004745824601000022,-0.005278107732612268,-0.005807562859601597,-0.006248695631767046,-0.006554067977483251,-0.006870559788558683,-0.007210525202921965,-0.007572133541467299
-0.008929622725268156,-0.00880133876306662,-0.007827945366826952,-0.006127359285776889,-0.003925162783272989,-0.0015777674701678824,0.0007359303416594337,0.002825730083750065,0.004531905704283244,0.005788669728097131,0.006850810272259563,0.00760268967386044,0.007952638217970674,0.008059417341632721,0.008252545382196488,0.008221504721181598,0.007846184923181112,0.00744337154395451,0.006850328463975701,0.006104799638281147,0.005298836758754254,0.004546358273364752,0.003987609606703255,0.003706488340893341,0.003538661875063251,0.0031643796610531937,0.0029125677166185826,0.0027959864133382897,0.0026828877164225134,0.002412066656462357,0.0021163980220785974,0.0015586174874849222,0.0008461530984714131,0.0002775259922563098,-0.0004600735850552324,-0.0013030976988262838,-0.0021313964667207096,-0.0028282782985129176,-0.003354128828808857,-0.0039594466777305775,-0.004682372165715485,-0.0053825662700539645,-0.005846906364062512,-0.0063040495808437255,-0.00676711757318705,-0.007168641722239602,-0.007601589582596847,-0.008115337216956465,-0.008657568105191223,-0.009158650196760702
-0.008596555245171255,-0.008215583727545762,-0.007259881517975301,-0.0057235697173657315,-0.0036219324819724134,-0.0014408525743382205,0.0006103819555437175,0.0024537057281906103,0.003974644528472261,0.00527017431860155,0.006544641700553543,0.00731073460536066,0.007681336709555411,0.008057041397281455,0.008191840154930493,0.008203752343623909,0.008302752544848324,0.007921330030907614,0.0072515747172987284,0.0066928003482817815,0.005967838130090664,0.005149810200616945,0.004405798619817546,0.003802037307671602,0.003194983335053591,0.002482976584352004,0.002049304126863351,0.0018477141864846115,0.0017471941207438896,0.0016024521103176997,0.001405704229714632,0.0011611723957965065,0.0008344907317673426,0.00038095918178426754,-0.00018721910308027844,-0.000691134724508232,-0.0012338971873614513,-0.0018726244925642975,-0.0025092210310228053,-0.0031469952264240562,-0.003783307327994004,-0.0043821042910300685,-0.004924888256119997,-0.005459977812169614,-0.006157463932077441,-0.006861648137757417,-0.007442298095175808,-0.007779439177006482,-0.008211035051104494,-0.00888988990315186
-0.006966665554929931,-0.007030059008345965,-0.0060481407139081605,-0.004390842504192925,-0.0027047388309707587,-0.0007907200368549329,0.0011919809932566983,0.0029677249949583485,0.004397420513315391,0.005542097556177276,0.006449133732131481,0.007063692641428186,0.007413875988315265,0.007552616506425685,0.007563819609868966,0.0073785449863518985,0.007013678255017744,0.0065360349481250355,0.0059410527976598935,0.005206716641593436,0.00433290340158089,0.0034316591325568267,0.0026627346828513834,0.002122904519453455,0.0018047778776139316,0.001621419442753431,0.001488322135472485,0.0013006236664167134,0.0009975338297241512,0.0007809831950451163,0.0008714492027297822,0.0005357697297163263,-3.7577196894432056e-05,-0.0005303894355406288,-0.0009313659287343742,-0.0013816145909215267,-0.0019265388335875959,-0.002446495857615519,-0.0030595599093345507,-0.003710970556765308,-0.00419301126291197,-0.004558351635338806,-0.0049141982978771846,-0.005374093866122289,-0.005892640814609047,-0.0063640360638335764,-0.006726235043809343,-0.007061928979992569,-0.007387091890417996,-0.0077056891473501555
-0.00491840985884918,-0.004305478242822581,-0.003603877436871698,-0.002748839578844074,-0.0016038976218448586,-0.00033530667199530045,0.0009073590860027891,0.0019525736262757545,0.0029030889360117298,0.003704635519029772,0.004208146204676421,0.004592459411243385,0.004824922306313463,0.004787277412114851,0.004723773575607668,0.004668373227691431,0.004564411448805815,0.004314182357659273,0.003943058584865385,0.003526025033170519,0.0031450968323005826,0.0027153835632278034,0.002163504722067832,0.001817819163262032,0.0015828521484152068,0.0013381366433805476,0.0013619388870371415,0.0013783503675703507,0.001152043858551726,0.0010462014689170069,0.0009686172478832127,0.0008148531535866401,0.0006687184288779431,0.0004518744288756362,0.00011281843010873424,-0.0002829621451707114,-0.0007047382427598399,-0.001111708784213296,-0.0014114157438631669,-0.001807977323178409,-0.002343837725875625,-0.0027252197104575765,-0.0030304529926762185,-0.0033363741701904143,-0.003706553535229483,-0.004122513092363695,-0.004550139203284124,-0.004923923947307565,-0.005187695544848807,-0.005318281264981408
-0.007095978339002885,-0.006797180371349313,-0.0059250141414167925,-0.004560525260698378,-0.002852138735210419,-0.0008197526202245208,0.0011007105857837132,0.002487153918060768,0.003848607628599854,0.0050072698467782395,0.005814267264379758,0.0064349197631409895,0.006758249151632991,0.0067475421144793145,0.00649067357497988,0.006335296745562851,0.006194078339607901,0.005745303486575213,0.005061622425559192,0.004248662606145766,0.0034335119517400745,0.0027836660699329754,0.002264614718276158,0.001840932501407917,0.0015240873480303555,0.0012787051312628944,0.001121892724341281,0.0011149238112180772,0.0010965625635982901,0.0009570860147684651,0.0006389851857087171,0.00036474190869466896,2.358156856250841e-05,-0.0004969062119286761,-0.0010431130026800296,-0.0015530062592410254,-0.0020099739443035763,-0.002448513772883863,-0.00297733909899442,-0.003551640534090159,-0.004005678666470442,-0.004457227524107384,-0.004981639432726155,-0.00559949746593757,-0.006089507228914367,-0.006512392483579866,-0.006932838165319079,-0.007273435041180512,-0.007617179486035547,-0.008014619305582971
-0.008741709259479332,-0.008709634980818105,-0.008267889794470969,-0.007010032291833953,-0.004818018089133384,-0.0024990778905788526,-0.000147741858681937,0.0020771909398780565,0.003958224501603998,0.005277921517413288,0.006337327103391347,0.00717821514612259,0.007720891760101243,0.007854162501419727,0.007711472504314799,0.007615073878688225,0.007546886472614886,0.007041027881311722,0.006381287382668337,0.005728455299321775,0.005147606993892981,0.004611230174885861,0.0039104866407304855,0.0034575990916091734,0.0032953980885118313,0.0030387866082596917,0.0028610975905593913,0.00286066781556583,0.0028722137654534647,0.0025743029363756156,0.002105842133105757,0.0015843884856308332,0.0010971729656743079,0.0006803219732099996,0.0001916149503751716,-0.000524971945308129,-0.0013993253308205154,-0.002251687945668184,-0.003097074359712339,-0.00367011218273161,-0.004107888840019421,-0.004682542510456684,-0.0052161639000014096,-0.0056712443348343675,-0.0061380869897429,-0.006690780862917481,-0.007186117064508554,-0.007622886274277317,-0.008016262622733552,-0.008378077552179205
-0.007852897581606896,-0.0075502226676708774,-0.006522674151821927,-0.004890693959085569,-0.002934768332828323,-0.000800220379116005,0.0012965200441977863,0.0030252226655453295,0.004553187734125165,0.005849274650975914,0.00675840449567609,0.007373390766655111,0.007685442406276336,0.007658079793071208,0.007543330579408031,0.0074312683164593114,0.007304915882411647,0.006701414499005847,0.005919053761896973,0.005416642430150317,0.004541402795326641,0.0035280138096708737,0.002802047718645857,0.002235589639479282,0.0017631176917536067,0.0013319798204789188,0.0008897327589176668,0.000598538192126263,0.0005595913272262433,0.0004546869957924809,0.0003425486662804759,0.0002539564393214717,-8.487475932785653e-05,-0.000597273106661264,-0.0011626494866325537,-0.0016265313487936021,-0.002057161182253275,-0.0025175768454610828,-0.0030287374813064215,-0.0036107756412065437,-0.004219690911615519,-0.004670028839110396,-0.005071880269281544,-0.005533124517996258,-0.006169545317820751,-0.00678384606673294,-0.007282384589060142,-0.007687201180699876,-0.008050520930388938,-0.008394900129636366
-0.00867022345527582,-0.008167075581566045,-0.006962775585309833,-0.005186977686712765,-0.003034747597382016,-0.0006934023088789522,0.001571133119440034,0.0035882227328529227,0.005206027661236274,0.006156904968538732,0.006891456252400433,0.007523552592790851,0.007737064290418853,0.007840686377118666,0.0077372360452883475,0.007412319519102973,0.007160980358982673,0.006698996473036321,0.006041929022025322,0.005307165369959206,0.004524060210084125,0.003760565627511604,0.003136754389186121,0.0027663423688563745,0.0025362147244938392,0.0024781163695768607,0.0024840767073504204,0.0023299834301553123,0.0022368269267811635,0.0020005593667104496,0.0015543665477619937,0.0011596933264679914,0.0007281070210516412,0.0001792934801920577,-0.0005386197217433459,-0.001415534648409119,-0.0021969839075305685,-0.0028585364140980506,-0.003491448344999899,-0.00411923015586489,-0.004736036314832762,-0.005363348372956297,-0.006000841069340101,-0.006366370597673112,-0.006731140071413471,-0.007193767016899601,-0.007535240320922763,-0.007949909310618704,-0.008463600868052345,-0.009056442165988542
-0.008468939881997992,-0.008046266890382495,-0.007077428388622915,-0.005570384586014695,-0.003559728641777513,-0.0015587270564084757,0.0002334455872894259,0.0020764123264511276,0.003600017019562259,0.004630414321896107,0.005556212247211004,0.006280067773147782,0.006707038387690794,0.006978301095779809,0.007048191089448441,0.0068477554550994,0.0063997028666384174,0.005806541195532377,0.0051959622107022214,0.0045282027899432985,0.003720698515223385,0.0026755384482885546,0.00170917345186239,0.0009365578157305697,0.0003882559729963979,4.282837059742283e-05,-0.00013801172914486184,-0.0002325797417919174,-0.00031063847061190027,-0.0004134699119378042,-0.000570336922077234,-0.0006822999387556156,-0.0007185823007615774,-0.000796766742412144,-0.0010322766340055086,-0.0014740708370872256,-0.001983123722626462,-0.0024535684368018184,-0.002844604534330415,-0.003416885653813268,-0.0040263666184123395,-0.004482534754445569,-0.005099542265274462,-0.005750505561281857,-0.0061682408489191634,-0.006693573136779516,-0.007293452074641639,-0.007728861879002567,-0.008056569079701675,-0.008298320579471236
-0.008161396275267652,-0.008129748554265162,-0.007414268070778705,-0.006008133342798037,-0.003927847710593963,-0.0017162466756278113,0.00044997066540686817,0.0025836281488530524,0.004325491862643803,0.005670980898794957,0.006817021402210445,0.007652967802784476,0.008097195590915054,0.008107250414603594,0.008062012403241172,0.007971729902366529,0.007710906823121979,0.007346716502460167,0.006801703845846322,0.005983577818949106,0.005143566976214143,0.004308305281127732,0.0034581245653154307,0.0026731917370331087,0.002042146109630587,0.0016226018883252682,0.0012915038840776469,0.001001294823203604,0.0007519610998806669,0.0006788193962457262,0.0006376072665612399,0.0004836717738925202,0.00018427283910051344,-0.00020395327713261334,-0.0006163033508797967,-0.0009733030134658593,-0.0014261172894530776,-0.0020538652101880447,-0.0027449683916512444,-0.0033075419025686377,-0.0037629681176277255,-0.004549247132514648,-0.005239148794844831,-0.005688370104488383,-0.006226244050476234,-0.006724136471878045,-0.007142518338580681,-0.007579342931453457,-0.008054606397770586,-0.00857461501086301
-0.00734035128970503,-0.007419117166015319,-0.006875918234334449,-0.005710647122731102,-0.003932397404019612,-0.0019499953940051078,-1.685681840733061e-05,0.001742041683240785,0.0033309724480026287,0.004735251452880564,0.005844225235062185,0.006663262718488796,0.007210595022322845,0.007501514006114272,0.0075814152720012455,0.007499252834317141,0.007278418672565073,0.0069221314214461815,0.006416195082030526,0.005642244008354458,0.004691126541033302,0.0037732385136313535,0.002993381959303982,0.0023327070164924045,0.0016886805303612876,0.0011189736640292655,0.0007049884185993281,0.0005855872683694927,0.0004475346574589974,0.00018851118437585067,-2.567568624962905e-05,-0.00010721323107708823,-0.0001117958821784798,-0.00043761338772024453,-0.0008023350206450115,-0.0010229326350110035,-0.0013864815297450876,-0.0018043031030934146,-0.002177642704695748,-0.0026449540219758306,-0.0032314575426858503,-0.003908529492409398,-0.004430156614938339,-0.004897936073606089,-0.005522162451811787,-0.006011294830925638,-0.006372565066008704,-0.006766899356813778,-0.007080196337042755,-0.007271310579306922
-0.008038253694153903,-0.00762436782247575,-0.006213043311286444,-0.00406483665017825,-0.0016086901689665708,0.0008546512885624235,0.0031187821628744904,0.004989827298430805,0.006250000883974731,0.007383044100812801,0.00830282274259142,0.008665773540613741,0.008669878790774457,0.008695649136997774,0.008758543177839858,0.008254086849577975,0.007803132839793679,0.007316564399624438,0.006410221743023639,0.005550364148996074,0.004817691273089093,0.004250594766058684,0.0039430067528664955,0.0037017667988069047,0.0034514496967629647,0.003172123673074611,0.002802473054795271,0.0025757404309072834,0.0025248599397562246,0.002270955271637082,0.0019574286911543046,0.0015659193191694765,0.001000762430022284,0.00035460739838530565,-0.0003448987005798048,-0.0010523354289012914,-0.0016760217269990003,-0.002460697794221477,-0.00328873256368192,-0.0038885872334894645,-0.004416202037543492,-0.004987747745722032,-0.005616079186589504,-0.006163087189997777,-0.0066742060325170605,-0.007092245201892729,-0.007378406240307047,-0.007959164828408903,-0.008460149589028933,-0.008575045127642204
-0.008998454646134958,-0.008518757348245034,-0.007510163843701715,-0.005965634164315231,-0.003874352303840097,-0.00164248608531783,0.00047357725483059855,0.002334693871724376,0.003855040518653867,0.0050300841044848,0.006056894677910677,0.006857670214871921,0.007345739832467627,0.007509206942624209,0.007471287103179918,0.007365493907269948,0.007195236870001787,0.006831440618199697,0.006124320220194836,0.005313633881251919,0.0044867745413112725,0.0036899372193800006,0.0029380880926414246,0.002190715452932055,0.0013714961101089925,0.0008209471719038742,0.0005913828997908684,0.0004708292206998439,0.00034019885897262187,0.00018180397880800974,0.00010362284768101064,6.985656853040562e-06,-0.0001857635111904747,-0.0005297117125319434,-0.0008537635210536834,-0.0010832508430659975,-0.0015018424779742157,-0.0019687203762853355,-0.002359425678101473,-0.0029585978690159324,-0.003615310635547956,-0.004105093964586742,-0.004569817634871177,-0.005118482275033129,-0.00584507553490808,-0.006501650541154388,-0.007066986082092218,-0.007630122053581871,-0.008155537741414537,-0.008630111458632373
-0.007674818535648567,-0.007057275172158325,-0.005771741262176382,-0.003929610277600525,-0.001855053179269167,0.00022385314114823664,0.002161676678843056,0.0038360721802979474,0.00520035454371817,0.006258548965864022,0.007134360228672013,0.007695224280215682,0.007868059081518119,0.007933950765659862,0.00795520238905291,0.007906244974402196,0.007458855853562397,0.006783591443841833,0.006177589628074235,0.005441196871280918,0.004566892744690646,0.003643013530254653,0.002882371502920402,0.0022815513852713775,0.0017023638382617366,0.0012812731853986074,0.0010399208274686161,0.0008923012282731242,0.0008085975452307951,0.0007652692594011242,0.000724333249498505,0.0005652872886939983,0.00022095947086829144,-0.0002957634216478942,-0.0007248576282013182,-0.0009736779587908864,-0.0015403776397848478,-0.0021598634665225998,-0.0025733564823797643,-0.0031306448573120496,-0.0037271780486359176,-0.004188444232271867,-0.00472493230246139,-0.00537934338740421,-0.00611514141749924,-0.00659873512891416,-0.006938532779864299,-0.007498747387109721,-0.008055982896016514,-0.008529287086541859
-0.009929536839597668,-0.009627546411919697,-0.008388518427075598,-0.006310641700786656,-0.0036657248855777287,-0.0011105247241770567,0.0011058411627217451,0.0029520593897358486,0.004514637244559499,0.005875926139067198,0.006894849264582293,0.007488640324895569,0.0077030675765931865,0.007816716474824903,0.007835930245361767,0.007705816159703661,0.007388108113556666,0.006870798039753715,0.0062041599024262786,0.005430540366994978,0.004514636409014251,0.0037812863044016025,0.003295844965212913,0.0029134638091475743,0.002373446962237856,0.0021460251073767674,0.0022022965941852803,0.0020242024907554893,0.0019252654641031311,0.001762971866053112,0.0014518966397185117,0.0011178652305798417,0.0005262073122019095,-0.0001430299411186538,-0.0006996981126258296,-0.0012878744039637637,-0.001976697831506483,-0.002691634741113356,-0.0033081810050032937,-0.0038261250288310665,-0.004352861713233203,-0.004907834758188889,-0.005457593027422677,-0.006134580589571297,-0.00670901928827646,-0.007080027547352183,-0.007400422036580298,-0.007823369651676647,-0.008244894818433497,-0.00854629832473417
-0.008543203839828794,-0.0084231511547886,-0.007404650473345237,-0.005615849090088166,-0.003327195087926376,-0.001043065101558535,0.0011281911386417942,0.0031447618134107943,0.004924013717010708,0.006297729953055003,0.007329133170907599,0.008162176444388792,0.008616381631696523,0.00871981038332191,0.008565240344575103,0.00831164053980746,0.008069919813525936,0.007739535869921383,0.007142585750384812,0.006393756044257351,0.005465955263458868,0.0044952592014304025,0.00394040572816985,0.003387230657331379,0.002802036090372436,0.0023683225893087784,0.0021398528307960975,0.002008909398850432,0.0018738296440605638,0.0016778124116287837,0.0015095246400955963,0.0012997349012242197,0.0008903448454896474,0.00021756457682762018,-0.000552270352900669,-0.001271425732016244,-0.001873133532398821,-0.002498359390973797,-0.0031442550715987958,-0.0037426065893496926,-0.004348860096587319,-0.005064749245460646,-0.005832597627807559,-0.006325623915913086,-0.006906522479703688,-0.007455262116016031,-0.007702742986864916,-0.008238386461818764,-0.008795520852920806,-0.009122946106257463
-0.008044106064583842,-0.008098296099149048,-0.007243686512751675,-0.0056207786187306335,-0.0035183834717798456,-0.0012664683528788552,0.0009137373589685524,0.002867944242985886,0.004670847526079386,0.0060179014642579454,0.006805477444222767,0.0075234279089867896,0.007981173281760822,0.008141673181474523,0.008195012356397267,0.008029078602372931,0.007595544248001892,0.006914106353283208,0.006249870258750789,0.005522208106188746,0.004642808355576241,0.003910236594257168,0.003271547904776198,0.0026627433056839282,0.002095300736943292,0.0018662422667549694,0.001855985964070502,0.0015382553393472663,0.0013384515745241284,0.0012401461081505904,0.0010264606580847584,0.0007372663852496564,0.0004062612136459183,2.4942736950960616e-05,-0.0005517080297817546,-0.0011992623662625047,-0.001856103889540249,-0.002585206716250738,-0.003097902753393774,-0.0035106500546208527,-0.004262986447827548,-0.004999104216248636,-0.00564713301200955,-0.006239502543054191,-0.006739693143892608,-0.007166440394884558,-0.007570733500053129,-0.008070792991820142,-0.008547289966935186,-0.008927139843374213
-0.0072776067566500905,-0.006323750846023618,-0.004786138659736275,-0.0028110428583792563,-0.0007366617577175991,0.0013020756850351497,0.003168022251106105,0.004669262670688863,0.0057757269569661115,0.006571116549076333,0.007211857590553023,0.007555794374571051,0.00761247135431561,0.007470582500206191,0.007155717273186314,0.006715227924298339,0.006197771547503728,0.005494494086366488,0.00469453235109871,0.003928126596156208,0.003017486276098178,0.002215918136639998,0.0018184700109875286,0.0014731861894480608,0.0012118187350628677,0.0011097425045526591,0.000995287448623973,0.0008857696104308998,0.000804126813658479,0.000642185437514969,0.0004335277345649213,0.00018817277563248805,-0.0002425988002643042,-0.0006986335187465612,-0.0010747881880159977,-0.00149666395845354,-0.0020697117745251516,-0.0027865588194634344,-0.0033857145961122474,-0.0038767304423725866,-0.004315503674227885,-0.004819915398484725,-0.005354577174858645,-0.005896495579349794,-0.006447125502853427,-0.006885105146414234,-0.00720649858120088,-0.007562307325434308,-0.00786101179866425,-0.008058148040990648
-0.008042412320441325,-0.007746084576069586,-0.006794741572849023,-0.005170903452474853,-0.002924044304396802,-0.0008142116611031941,0.0011100509216542846,0.0029455155554043862,0.004311395603155958,0.005410912319908712,0.006332416254168574,0.006683492214500544,0.006875152202094385,0.007059813576867533,0.0070616013759905024,0.0068605651390241575,0.0064328276058288805,0.0057620624273111,0.004979773622268552,0.0042141099312521975,0.0035608395517591216,0.002973096630531896,0.002379657628621574,0.0018225436205002738,0.0015767430825270679,0.0014050595964020755,0.0012690671371366504,0.0013169156009732966,0.0012193981549733564,0.0009694299803356564,0.0006966824488268607,0.00033526400774537535,-7.794031719725887e-05,-0.0005093459818541703,-0.001019708913371624,-0.001511329245888371,-0.0019390204301732413,-0.002366120200463924,-0.0029229497803402935,-0.003538828968977874,-0.003987045103346593,-0.004458958122750049,-0.004915796228178428,-0.005272166320494861,-0.005766208445478206,-0.00624895693798279,-0.006590892158759949,-0.0069213764150369535,-0.007295109358647399,-0.007734752347476206
-0.008424315536992025,-0.008294407965651052,-0.007388169960308721,-0.005840521791929199,-0.0038429508341458014,-0.001370680696771493,0.0011168099755510094,0.003276733671872209,0.0050396678746800925,0.006399002650760816,0.007311468666339438,0.007763057112942622,0.008040813445808176,0.008205554429795155,0.008269847253884424,0.008238575538262724,0.008019951139887538,0.007588340946345207,0.006932247872508766,0.005932078632319416,0.005058317135743044,0.004501062215286111,0.0038486883028186537,0.0033022568646571063,0.0028655593037541257,0.0024563558078887346,0.002234225010564727,0.002130964020099052,0.0020322413541191122,0.0018009663696620848,0.0015083015762261936,0.0011525485179535704,0.0007007758562045393,0.0002106479639871376,-0.000431603340505643,-0.001242646723516855,-0.0020193154672000324,-0.0026612117260883415,-0.0032527044861079646,-0.003929668880681277,-0.0045068142034586905,-0.005015854975134515,-0.005561982030519594,-0.006300736502316225,-0.006862788588340444,-0.007249631276229894,-0.007643982405320649,-0.007983149456909089,-0.008341105198689105,-0.008776069894336236
-0.007525402507766117,-0.007290522925779185,-0.006327827571996795,-0.004753632049056119,-0.0029047351608718665,-0.0009455254165364499,0.0009996814847774587,0.0027613594723847304,0.004321482589791873,0.005650338411860904,0.006624810464466373,0.007314868813295255,0.00777098317567033,0.007879339875300456,0.007767420144470575,0.0075783117623466865,0.007228556637355762,0.006718216573799583,0.006065513534967672,0.005228612580134261,0.004274358442452489,0.003339899875546526,0.002521196429152048,0.0018612635894258904,0.0013825954514643626,0.0009706029029344961,0.0006467917245877377,0.0005750213050789364,0.000537858310648938,0.00043394495729278423,0.00028639370192200904,0.00012333090237186053,-6.762347465722177e-05,-0.00039745564796588533,-0.000744078617096173,-0.0010662650709789118,-0.0016541952256563294,-0.002207144067247346,-0.00249661131424675,-0.0031084469376300283,-0.0038390581772446072,-0.004347613117096299,-0.004866286772965189,-0.005399251201444676,-0.005876915326513228,-0.006331815310796468,-0.0068291072662064085,-0.007457297390297769,-0.007960833847239918,-0.008249747534187236
-0.008769868498970785,-0.00797978724095288,-0.006069935423515269,-0.0035148440935523634,-0.0008715490507330594,0.0015329827283736414,0.0036276197128186864,0.0053255721477110905,0.006531599567408462,0.007192245032554088,0.007650057053750026,0.007909834473520765,0.007934580349843142,0.007778586501022252,0.0073416022511238665,0.006615991637192058,0.005765487160749244,0.0050840392933567775,0.004181676373993604,0.003348083832923389,0.0027857672755384057,0.0024281036174167475,0.0023103929615504184,0.0022381315886833312,0.0021134328587149686,0.0019920855684760486,0.0019897555024084032,0.0019880727647122185,0.0017894968089268112,0.0012607300365135498,0.0008368775701836986,0.0003906823829151282,-0.0001076479610370875,-0.0005928782119801068,-0.001227330218835687,-0.001950820260285637,-0.00263889561913506,-0.0031899515190123157,-0.0037077915510482814,-0.004127314859094231,-0.004483952609834155,-0.004894432129621127,-0.005460739769267938,-0.005843542473866642,-0.006148604384523209,-0.006605360117729848,-0.00705131748490815,-0.0074606780310111035,-0.007785703444452761,-0.00797990607239644
-0.010976254913191125,-0.010535451055679062,-0.008946529659437359,-0.006310540036996008,-0.0032848028770466934,-0.0002835988608297865,0.0024375071983866676,0.0045437774446337835,0.005994207876484996,0.006820223902474823,0.00760133520425345,0.007933075924109917,0.007982199638907358,0.007824965447251444,0.007498784582522524,0.007076291376753891,0.006354771991064134,0.005615907596336766,0.004781310518352937,0.004146742322720673,0.004015359443206896,0.004042136538785462,0.004050468779310471,0.004222835827011507,0.004369086840883817,0.0043436714087573495,0.004302310424436102,0.0037373779578603,0.0032537603769561474,0.0027228227523175665,0.001984755925936896,0.0011658022190301374,0.0001539651222071905,-0.000707688388151571,-0.0015043290806046993,-0.0021661292574749066,-0.0026339127553917695,-0.003305838313138105,-0.004218878616710185,-0.004875668145378309,-0.0051575820752120345,-0.005809736533023275,-0.006223416986894185,-0.006631427944162598,-0.007166965304852434,-0.007656804076215271,-0.008163089880728728,-0.008737114651671098,-0.009194750181713566,-0.009705915806235569
-0.00853427950220867,-0.00801086925157163,-0.006956019603337598,-0.005334896781065487,-0.0030620368696644734,-0.0007578912550190399,0.0012644610914770529,0.0030810018670885237,0.00466350329569991,0.005992513541353352,0.007084615327119356,0.007845015429870754,0.0082309096275151,0.008456171205630005,0.008563737104454319,0.008561951454941267,0.008438191063448872,0.008186486976101113,0.007792404585416806,0.0071611364574965305,0.006314233002590395,0.005342315700819786,0.004437951059745362,0.0036802542588438795,0.0030990133918728413,0.002495114087000652,0.0019007410712870245,0.0015940032195132106,0.0014220813383142357,0.0012580001546974502,0.0009538405176743916,0.0005840555893339249,0.00020779687902089565,-0.00014206679922449146,-0.00043668491865503,-0.0007027080084284941,-0.0011679825252156443,-0.0017222138269267014,-0.0022630386406082537,-0.002986870450170009,-0.0037336025568288087,-0.004296313474301812,-0.004898803836496164,-0.005485361621167054,-0.005920022339629891,-0.0064708408261989914,-0.007108111149145892,-0.007634917003776342,-0.008057628390763245,-0.008380051761388608
-0.006551767568127031,-0.0064834897247787035,-0.005827249545672565,-0.00464498726844752,-0.0030622244894111528,-0.0012075322752865046,0.0005195496316189338,0.0017537553774984085,0.0029015123371152036,0.003896795216972976,0.004645612052343814,0.00516559145746384,0.005529194338345922,0.005685544106967718,0.005459023396333447,0.0053710067750253445,0.005345877966470104,0.004991599691316485,0.004481184502105004,0.0038751335828612465,0.0031987542867086237,0.002469298379123943,0.0018846150713479803,0.0014884566038365988,0.0009939898346228312,0.0005976910702296546,0.0004157770701419798,0.0004634546693212232,0.00046226150361236475,0.0004252294512990636,0.00043928466238966576,9.6362053579472e-05,-0.00034076568939336545,-0.0005833313563880567,-0.0007943342757213028,-0.0011251701076088394,-0.0016016528351339905,-0.0020592461786933447,-0.0024697654915364392,-0.002856903541648911,-0.0032660303714024497,-0.003523700615900707,-0.0037759468098864527,-0.004255375719221214,-0.004810194424207857,-0.0052897481483990625,-0.005637646395724371,-0.006046773442639627,-0.006459866228088095,-0.00683381240686127
-0.007245063167699122,-0.007050173508014142,-0.006177017736704621,-0.004677716006864664,-0.002720909583388812,-0.000863290753987193,0.0008295690840318487,0.0023716906605620288,0.00374136899595735,0.0048061069389376656,0.005610207810874454,0.006210613195406027,0.0061714761122799375,0.006093916787576267,0.00617472794360954,0.0056838589260890275,0.005238401942512117,0.004858029071410802,0.004252547244657834,0.00351656820331617,0.0028344453016378077,0.002243929347425854,0.0015361882758232455,0.0009610812566430047,0.0006666122220927732,0.0006529399884768423,0.0004283922854302405,0.0003347365839613326,0.0005239201718008191,0.0005938569160103152,0.0005486732857952303,0.00037948207271196736,6.366474066344033e-05,-0.0003665702155662577,-0.0008110961644599069,-0.001220268459061021,-0.001640687946174038,-0.002103277587303948,-0.0025869683108654747,-0.0030568109500064603,-0.0035705839769420962,-0.004019348538327372,-0.004355449190491897,-0.004680062322947195,-0.005046027604368405,-0.0054636980319347495,-0.00591499601763319,-0.006341507621988978,-0.006735679058573758,-0.007099002062412712
-0.009976803750060353,-0.009982731100984327,-0.009064926042973577,-0.007079689547284515,-0.0043942261539027675,-0.0016592227171103053,0.0008557120794697907,0.002904727558632679,0.004411171238461876,0.005424531866138492,0.006065900665128734,0.006462225703746039,0.006605739191313275,0.006539350901975931,0.0064150044551327485,0.006056584558400374,0.0053130285987524105,0.0047435565260731906,0.003870364335663668,0.0032380755730061265,0.0027691677572399807,0.0022416784130805585,0.0019001219744093753,0.0017357261557488137,0.00183790589332934,0.0020599752829313115,0.0022959988057243462,0.002464846785463478,0.0022817473588520602,0.0019436802765541246,0.0014463974423370688,0.0008971927811697088,0.00038745414655828696,-0.0001697440929193251,-0.0006839538316294425,-0.0014255227046072716,-0.00211181264241537,-0.0025851124081218784,-0.00306993675453678,-0.0036637937650013303,-0.0041010277157510055,-0.004318402284620659,-0.004616470508057536,-0.005122198972755042,-0.0053741298597455266,-0.0058980776865391014,-0.006520628382177748,-0.007046354765874114,-0.007386928825743087,-0.007525725694977684
-0.008425739046350387,-0.008143118369343146,-0.00708530483139788,-0.005309949822598127,-0.0029645734013636848,-0.00040265560129083854,0.0017957914378310216,0.0035850900593918525,0.005218752850306812,0.006444304080057149,0.007166800403695812,0.007487884042731504,0.007677301913876248,0.007646910814296907,0.007406757452327496,0.006994597076431499,0.006442135180730649,0.005665766551952127,0.004744093243441185,0.0038416913921546594,0.0031544852714132867,0.0024919718283334157,0.001975573329096467,0.0018225928585938994,0.001650093632687553,0.0015351552671524831,0.0015204669018613081,0.0015309380277152658,0.0013826185957579696,0.001216695924863411,0.0010315033460841676,0.0005401066828017446,6.386171175895655e-05,-0.00043494606872286124,-0.0010260287040743815,-0.0015368480230106042,-0.00197142708325598,-0.002523490685975267,-0.0033267744035120977,-0.003882143634238183,-0.004342969841466114,-0.004793067128578138,-0.005195440175495664,-0.005518817881502234,-0.005875834434451785,-0.0063115459478984386,-0.006742994020918219,-0.0070332190364719915,-0.0072891168334469104,-0.007629124583887387
-0.009285476610518494,-0.008855364641799488,-0.007275564814963196,-0.004813131663802506,-0.0019699773835215794,0.0005290314313047345,0.0028888092152265033,0.004928516741229582,0.006439970539070288,0.007453073030213187,0.00808448345402617,0.008367006678668597,0.008417144392986025,0.008487929940525761,0.008331370186413509,0.007944557440435658,0.007397334873586394,0.00675863772235882,0.006031612312385318,0.005298007866051169,0.004561228863747572,0.0037599931110442937,0.003162023459908685,0.002998383816600809,0.00309278005912833,0.002967830654159836,0.002940585344320018,0.002711841196950826,0.0023609808937263997,0.002264811784433021,0.001977680263651646,0.0014765814516882717,0.0008407667716298366,0.0001481644290524952,-0.0006562474707238143,-0.0014258962146944767,-0.0020958363036069944,-0.0026950996679210976,-0.0033334258360221817,-0.004027702021712164,-0.004716360265832013,-0.005278040580488015,-0.005582021230244851,-0.006094327267472855,-0.006699602231443491,-0.007092229728595928,-0.0074096288752878115,-0.007801224207018937,-0.008286932480082634,-0.008839451018272527
-0.009282620601070735,-0.008681777103515156,-0.007105681683776897,-0.004676740026524845,-0.0017923291382545615,0.0007304865085980719,0.0031531190433895825,0.005145107991620495,0.006486604367836537,0.007546439293278848,0.008266006258419868,0.008694888301395375,0.008866039229637204,0.008743109954378743,0.008458344747397577,0.008032427355349248,0.007479293349404019,0.006842957305079103,0.0060991332126336,0.005345332860245739,0.004631554775487648,0.003957584077396226,0.0035366840195005596,0.003328985805831152,0.0031973834734288324,0.0029952825145233616,0.002872764967200642,0.002789395566956283,0.002621388041809683,0.0022503943430308613,0.0018590658081610323,0.001333365355122325,0.0006821803119069278,-1.1085258563958513e-05,-0.000917966234828255,-0.0017367721936434133,-0.002395028303757705,-0.0030198234288892714,-0.003720883019031933,-0.004371777673523977,-0.004956726504992789,-0.005500876705986975,-0.005905257331838119,-0.0063057776936264135,-0.006745286953488604,-0.007179373559601435,-0.0075144009335124445,-0.008059701052482323,-0.008619514144279142,-0.008875123791261172
-0.00828788222272603,-0.007750342789795004,-0.006355499290769723,-0.004290933604706795,-0.0020958766789153957,0.0001351920109676322,0.0023142774667687083,0.00424333258527556,0.005818755910116708,0.006975649754253957,0.007680077054813014,0.008086254561532781,0.008346889848412095,0.008578641674560565,0.008613970374101054,0.008303834945541861,0.008002161287632575,0.007658400361185877,0.007097701734898593,0.006207778149500281,0.005209094245698227,0.004485409932322388,0.0035878403574551706,0.0025848528171646557,0.001913654375882455,0.0015285557261181942,0.0013143572929011948,0.0010386517668701503,0.000853795933797198,0.0008008184885378264,0.0007580882625509729,0.0006638821756094946,0.000493734956158762,0.00027428108063259264,-0.00012362361787458147,-0.0007376259651272599,-0.001265756654943483,-0.0017387872246964644,-0.00222737662244631,-0.0027491511891372614,-0.0032748254203379037,-0.0037857266057522067,-0.004450571653640004,-0.005145624367692695,-0.005648300716845939,-0.006192721231307638,-0.006732605838946067,-0.007072344309066746,-0.00745814174223178,-0.007977562866594996
-0.00830765107865473,-0.008200327844533244,-0.007082278154001217,-0.005108237360277032,-0.0027475638292735866,-0.0005304946030363193,0.0018372520100831196,0.003607905952083861,0.005063992578596209,0.006323816955779464,0.0069531695412630825,0.007082291867986718,0.007224093300362745,0.00725981310862222,0.007110596414347097,0.006958214907044689,0.006341369938719685,0.005543730534067206,0.004798542916058747,0.004195718533209966,0.003730217632116416,0.0034341804158287423,0.0032773517505272224,0.0031281685804044426,0.003040836342004527,0.003287915461272114,0.0031546655733567974,0.0029782238711946072,0.0027989890227328295,0.002455683781239572,0.0019388447103042257,0.0012034063605343606,0.0005718501535006187,-3.456459536249986e-05,-0.0008676013918433381,-0.0018181853674796398,-0.00242457126126529,-0.003051144482589652,-0.003620353883088877,-0.003920189700138463,-0.0044758460082536125,-0.005046596773033022,-0.00544480143443705,-0.005749411883515755,-0.006156618557210377,-0.006636080765343338,-0.007214624787091547,-0.007688062642854874,-0.008029392118992049,-0.008391111492547539
-0.007528584614926566,-0.007443110761139688,-0.006732585857682423,-0.005403216226209031,-0.003479028051724911,-0.0014383107587909426,0.00037467972238157935,0.00230606617590087,0.0040359487215435915,0.005010280928526848,0.005734827642465218,0.006273280858209221,0.006341214928827484,0.006229764913166421,0.00610281807036394,0.005886996346433549,0.0056726484147998244,0.005528429757541229,0.00511195057799676,0.004511543520618115,0.004047217617639287,0.003590891353794174,0.003133220442412486,0.0028326034038101177,0.0026979816960566987,0.002694632701388387,0.0026301649963210998,0.0024376405473874223,0.002083574179775449,0.0017430331861008714,0.001489904343419018,0.0013654222065400605,0.0010206419760980436,0.0003780984565399992,-0.00011964238630701088,-0.0005882444125450267,-0.0011569121421612383,-0.0016298271314973594,-0.0020741230948800515,-0.0026713829936897116,-0.0033402681075561623,-0.004019045021886361,-0.004619738213246632,-0.005193770238974552,-0.005759784030732463,-0.006217859891123053,-0.0065938136432829135,-0.006936863416357391,-0.007252280996271381,-0.007541460401292658
-0.008262416159903169,-0.007944442681337515,-0.006937669980276507,-0.005240938911674887,-0.0028512359511832833,-0.0003666816844456786,0.0017325799746656103,0.0035571532172107385,0.005049809414292941,0.006097100819030478,0.006785000295034859,0.00718437509333589,0.007408404322317138,0.0076557415736336655,0.007978121821975812,0.008089517598691873,0.00805890616911897,0.008002559551538224,0.007956895631473823,0.007772944071821835,0.0071638537434358775,0.006455675033677158,0.005776859323005898,0.005089252525554863,0.004504141308241192,0.004072487562696662,0.0035949985621064255,0.0031054184044133704,0.002692390208320537,0.0023270689279715354,0.001974036418217934,0.0015697930985285231,0.001097296860712504,0.0005582255881218367,-9.205912580956262e-06,-0.000592655753331152,-0.0011884498443636756,-0.0018278151027416832,-0.002540075303696436,-0.003357591129366194,-0.004163277546415793,-0.0049278870019908265,-0.0056945954890679756,-0.006314418467520337,-0.006729105045905933,-0.0071573454876259265,-0.007671905939757272,-0.008294958293235032,-0.008738188055366037,-0.008923786271490725
-0.00856107541626462,-0.008561207318840802,-0.008230524798837933,-0.007524847562275645,-0.006138852809327999,-0.004176004072201597,-0.00200045563744577,4.7644733873534214e-05,0.0017469128174983429,0.003231353506986847,0.004462692621599372,0.005239227736584413,0.005702148193885745,0.005993494180729428,0.006095813197995519,0.006035624548324833,0.005927874601811047,0.005767455554543583,0.005542151202007303,0.005388599933405226,0.005290754823298353,0.004924706064157008,0.004342053911464152,0.0036905395951829434,0.0031004186890264585,0.002620817845221328,0.002159175052965985,0.0017539990041953522,0.001510650826192989,0.001263810520509836,0.0009411223438706841,0.0008231439253978242,0.0008220627405153859,0.000563867613250225,0.0001910712451332349,-0.000166408554606843,-0.0005265014805217328,-0.0009101385199054382,-0.0013681054484240259,-0.0018674150594729134,-0.0023716370493351256,-0.002929029288139198,-0.0035369637875828845,-0.004115525713411361,-0.0046601537809230304,-0.0051767649304222405,-0.005677681413625354,-0.006167275174325041,-0.006639696496706323,-0.007094098925265205
