-0.0068985914429997115,-0.007010814165217275,-0.0059340813045808535,-0.003679945404677089,-0.0004012189825899906,0.0022378552877845665,0.0034966327976248754,0.004341604050446742,0.00492885630419849,0.0052860638401822915,0.005417651572017998,0.005375060808948868,0.005237562909825205,0.005021118590153479,0.004717166241287797,0.00434794743272705,0.004057600565138456,0.0038329071317755336,0.0035370443425434086,0.003163336898218168,0.002766875923438356,0.002228855333973666,0.0016694126667995146,0.001216672258452448,0.0008518045286015446,0.0005244816211055162,0.0002882184523955289,0.0002424371103249941,0.0003020874999356593,0.00033054120361442383,0.0003316025299557378,0.0003655908582196844,0.00034332243881962085,0.00024692183643575035,0.00012802253691805596,3.3803793750909172e-06,-0.0002580665815681206,-0.0006914325108710725,-0.0011888052287657943,-0.0016434162024854982,-0.002134546097365969,-0.002667566895427128,-0.003124408554970698,-0.0036440691293545386,-0.004334888566126705,-0.004831758595595836,-0.005207601155322549,-0.00569043361757294,-0.006154525950810311,-0.0065558602440970145
-0.0062216651714722985,-0.005863651923689531,-0.004532539000995089,-0.0023668456460455805,0.000206033936120417,0.001970968619997697,0.0030136923056259084,0.003642985752801798,0.004041656648099128,0.00419017174448685,0.004136344687493528,0.004090479570769449,0.003943650527932973,0.003718619897323553,0.003503518071998519,0.0032357001558186316,0.002991667908870604,0.0028481112283941057,0.002693147562159919,0.0024069532471950386,0.0021179560156688545,0.001866172273283409,0.0015389680903191941,0.0012976993134083993,0.0012761531243559705,0.0011827987483000136,0.0010890041063315674,0.0011382008219764914,0.0012000340587580037,0.0011962550147883212,0.0011664692808778143,0.0010709003890689171,0.000779191172748551,0.0004140906795412015,0.00010950479885426207,-0.00030926636398019564,-0.0008813559773405014,-0.001395009714139814,-0.0018157636912243494,-0.002242904539513768,-0.00261508280396317,-0.002990920456721295,-0.0033676689029797334,-0.00361909082815866,-0.003959165315726127,-0.00434435075301952,-0.004703291679955535,-0.004999936413356452,-0.005266896837854702,-0.005533258925029867
-0.0056569739051075514,-0.005090499549796592,-0.003230631243036082,-0.0007548664777224796,0.0012227089362731732,0.0024415772017809903,0.003222039716735304,0.003776275929738244,0.004023184680634478,0.004063662617480331,0.003992540056953409,0.0038857815418639487,0.0036799118572366494,0.003462793260770737,0.003310636271385848,0.0032635109637434434,0.0031150701155426065,0.0029514743187006435,0.002752942766518202,0.0024160053672945656,0.002083073666662956,0.001854422903582847,0.0015688430037621084,0.0013126409815381187,0.0012830140905117791,0.0013414837381672308,0.0013885682734279415,0.0013408800792040672,0.0012322769407057982,0.001105195716801688,0.0009059212476871624,0.0007086488332447094,0.0005082581019417963,0.00015285692604007927,-0.00028458645040750375,-0.0007735149315800651,-0.0012237804675947854,-0.0015681008187982768,-0.0019161875160003709,-0.002295903831401713,-0.0027047300132043675,-0.0031061040251845317,-0.0034139025900102936,-0.0037224274684874437,-0.004092947200048699,-0.00451610005549347,-0.004961154846951557,-0.00536603139946408,-0.00577424568401121,-0.006214558162506524
-0.007432450953334435,-0.007210092948957571,-0.005766758162151205,-0.00334251547252359,-0.0003990423194118778,0.002375672832170984,0.004412030746281092,0.005635294380527368,0.006249307274241493,0.006524482557759626,0.006609437686411299,0.0064826766706327504,0.006267532373905591,0.0060142398235880495,0.005659868833306398,0.0053869586544015744,0.005054260924043332,0.0045789068016438015,0.004026885728139046,0.003505207978141524,0.003061659243618122,0.0026855627536633724,0.0023842137964906283,0.00215737300370037,0.0021549464587543262,0.0021917418836975744,0.0021042759953959216,0.0019193305834868544,0.001721288994482228,0.0015520773793483887,0.0011873275525495638,0.0007118125677746268,0.00016007899000729586,-0.0005129205292600914,-0.0011778626584934158,-0.0019028586957870151,-0.002676200208139665,-0.003340688070752429,-0.0038819445542701368,-0.004371933224090706,-0.00477178105826778,-0.005116172409625973,-0.0054671228229071405,-0.005694007066169706,-0.005944832859267355,-0.006216244171612813,-0.006441655941478277,-0.006785606933140675,-0.007142166346932575,-0.007397578507973197
-0.005326823018463297,-0.005308326426304651,-0.004573219493648721,-0.0030367555591960353,-0.0007564279924131898,0.0010115587179998333,0.002152826791957526,0.0028944361298653062,0.0034229038792108475,0.003780421187290094,0.003908207404529221,0.0037628787627087216,0.0035379619764537816,0.0032721823379060666,0.00300729453414404,0.002796941950307216,0.002671606152050018,0.002657794598810517,0.0025475444381083665,0.0023350601881522676,0.002057595212730944,0.001823349081992715,0.001602348526663022,0.0013978659588779231,0.0012930534146356292,0.0012527597326801793,0.0012358647474913023,0.0012311980543306075,0.0012548529605695697,0.0011951113822742177,0.001088195265042383,0.0009730740802219008,0.0007511197016851617,0.00048679692983923974,0.0002527496663131954,-0.00011575697316348989,-0.0006362048289565976,-0.0009957067894642215,-0.0013161399364282954,-0.0017442170060162937,-0.002161447716639703,-0.0024974965678321425,-0.002791958905061214,-0.0030160940841366998,-0.0032393155739823894,-0.0034935305713493623,-0.0037905890137336154,-0.004193582172359407,-0.004552502999472293,-0.004776380307074047
-0.005089061604955754,-0.005084392454493077,-0.003937472119815586,-0.0019505849917129765,0.0002734877299092354,0.001759282325015694,0.002670758188464567,0.0032878660149407274,0.0037618811417084092,0.003933325041487743,0.0038346034407503574,0.0036210584743623566,0.003429755081520009,0.003180699658764989,0.0028767786889416134,0.0027259983317699317,0.002665359077890015,0.002602370422389817,0.0024462560520982597,0.0022294385644916464,0.0019773334525381024,0.0017203384954332282,0.0015083093233501808,0.001365751582776173,0.001278517384915583,0.001221959923317022,0.0012358507216726556,0.0012812727456038705,0.0012723828758254361,0.0010671543959435454,0.0009068188865744179,0.0007668599223967709,0.0004979322495260605,0.00017477492793613154,-0.00017797792007168337,-0.0005655873803725762,-0.0010195883094599888,-0.001423891848770456,-0.0018012647877796676,-0.0022250681910350877,-0.0025795859187090447,-0.0028381765693459796,-0.0030146532662840802,-0.0031728711462533105,-0.0034651224057387887,-0.0038588570736716996,-0.004222190087726177,-0.004496768463926939,-0.004737454836904444,-0.004988529151299898
-0.006701401419571053,-0.006231451899277079,-0.004959644557027297,-0.0029365258666930894,-0.0003511214513061923,0.0021373697866150713,0.004205941384358442,0.0056971572058608375,0.006527724510947922,0.006778254764916812,0.006691640268464559,0.006489942035846919,0.006252141593597839,0.005979127438776578,0.005683431590626726,0.00532782834644377,0.004855544152797368,0.004330096845660134,0.003730614534320858,0.0031651229449791997,0.002619536445274854,0.002219093192286997,0.0019385539848596261,0.0016670969231678205,0.0015583275114686539,0.0015068156923154893,0.0013530272821157957,0.0011709403364052308,0.0010542625755510257,0.0008976741069520984,0.0006356397902105322,0.00022800121725520756,-0.00031878182054790195,-0.0008635719123098261,-0.001509187248179523,-0.0021040419500167763,-0.0027259639563133303,-0.0032988507838178104,-0.0037819656419174254,-0.004160511228028054,-0.0044852617585771914,-0.004793296974793126,-0.005073888708600076,-0.00537507830895866,-0.005655649680144613,-0.005879309513650017,-0.006037877626837739,-0.006184868579656037,-0.0063673338272992415,-0.006609898501359961
-0.006557427503496951,-0.006416270036478212,-0.005071713156023543,-0.0026292687040763603,0.00036039078609611,0.0021534874191261985,0.0032377425735988434,0.003943172480514144,0.004352098962997631,0.004590671784810802,0.0045857019243965074,0.004396085709521504,0.0042417225096432675,0.003987440526856682,0.0037420123602801025,0.0036199604297278867,0.003619726141632043,0.0034804394928201823,0.0032138676272426073,0.0029179307407866013,0.002609955157243733,0.0023143180634585363,0.002073569303607756,0.001924139965948244,0.0018065963110250674,0.0017857334944931913,0.0018214049488826855,0.0017736671507712777,0.0017160637104608517,0.0015476531088182523,0.0012618228449522656,0.0010231537087017637,0.0005793562131231768,4.442347567963148e-05,-0.00044208658935756206,-0.0009918647994904793,-0.001529736947936163,-0.002030427499218788,-0.0024921815725096794,-0.002880170132326304,-0.0032603507536758582,-0.0036101072716076665,-0.0038415700139468635,-0.004019113749978071,-0.004301504672139515,-0.004715760347426407,-0.005117603191486,-0.005580095323900209,-0.0060008264343068265,-0.0062764106504839415
-0.008418518612535229,-0.008096316387596827,-0.005912643961447653,-0.002275820480057005,0.0017590199405754315,0.005191595210112852,0.007562365104111609,0.00876673709355031,0.009279020658616991,0.009380327220137083,0.009242172715701812,0.008861431033795872,0.008326579312341468,0.007740785251338035,0.007205103371844344,0.00666571220669145,0.0060312265470740395,0.00534659387736791,0.004555465419619489,0.0036727755423828653,0.0027287279755192962,0.0018448364661226915,0.001105843951252927,0.0006127595310431768,0.0004158287868386485,0.00029785912875743666,0.00022013723109437746,0.0002534524406198779,0.00022854222886423123,0.00012737742494560694,2.6011227200163443e-05,-0.00016377509015896648,-0.0004409623212364756,-0.0007890231125797492,-0.0012817301912611842,-0.0019646723535621004,-0.002594604910306955,-0.003096960918697033,-0.003670167372604323,-0.004366505698590124,-0.005021689555409425,-0.005413875376786211,-0.005907227287107772,-0.0064719952644169965,-0.006714364426549112,-0.007033186710836502,-0.007497350700133939,-0.00783795904200092,-0.008109644266667965,-0.008341601962802475
-0.00890795981498935,-0.008416909369915416,-0.00624886361260612,-0.0026903773166676395,0.0015638580377692116,0.004846624876016615,0.006853310040067058,0.007765372463064704,0.008173514330770418,0.00827846952285831,0.008175680247380872,0.007932225957744787,0.007610888676110781,0.007168896459140309,0.006639470607581033,0.0062115619329263586,0.005689495775297354,0.005074654835787516,0.004448133857252999,0.003658262855388552,0.0028890479357382166,0.0022521605659332187,0.0016654820465210331,0.0013041475813530573,0.0011783781899414635,0.0012059964964067189,0.0013486982157178088,0.0014369575328004233,0.0013593060535688208,0.0011240256760077002,0.0008275829939807386,0.0004583454777763966,-5.7414902951097454e-05,-0.0007691280402321592,-0.0015350937393185226,-0.0022742335393260804,-0.0030441401969098316,-0.0037549261802264033,-0.004375495782693718,-0.0049124219251487945,-0.005393374249398789,-0.005785283564708941,-0.006087675701627907,-0.006377077472482516,-0.006703011169444692,-0.007066305612597232,-0.007451540103625647,-0.007893070080531426,-0.008281544755786081,-0.008537838356326093
-0.00623665948408991,-0.0062174210257211595,-0.00545654315434798,-0.0037264342095552744,-0.0006662190073488528,0.002678326765165448,0.005842036039663348,0.008320029097497062,0.009630292627585463,0.010154050092433335,0.010119345514016673,0.009773301816070298,0.009185978333958079,0.008446297387164242,0.007643197668363313,0.006821742171211707,0.006001665704482892,0.0052574003512086765,0.0044966514913344835,0.0037176301798159,0.002953144858309845,0.002183631696808037,0.0015830219395798501,0.001161132409735485,0.0007266869031340397,0.0003604398318190169,0.00012227605581138057,-0.00010532577523517435,-0.00025010388590598117,-0.0004301934040876136,-0.0006900778267082226,-0.0010353186812753477,-0.001419677727536178,-0.0019270861283742873,-0.00250520164063544,-0.0029361205676136782,-0.0034919721576634147,-0.004056544791528521,-0.004541687089955257,-0.0049649109910140056,-0.005277617988561832,-0.005529475142154342,-0.005738152464090024,-0.005868477577959999,-0.005941881901893923,-0.005996355054070986,-0.00599594402162754,-0.006053589360049554,-0.006135450200100142,-0.006182440051967133
-0.00608583962196249,-0.005740486754630552,-0.00406641788102097,-0.001641942395568076,0.0004934333175110654,0.0018817676694173736,0.0028376004281083743,0.003651904355259658,0.004113193741271286,0.004321915092581157,0.004326029935518911,0.004190507052680924,0.004033894713800226,0.003824662005873227,0.0036393396543688045,0.003573774950441941,0.003529687628974859,0.0034261377517607484,0.00323240968885328,0.0029399988678695996,0.0025419550743167514,0.002187593163786401,0.0019124559612149067,0.001663941673630766,0.001526771467088678,0.001510755315680402,0.0014599527458430195,0.00136597571217227,0.0012648351147028425,0.0011993838185176263,0.0010123836475902316,0.0007829841027157779,0.0005620084215416462,0.0002293699582007622,-0.00024156936816514045,-0.0007370810271372137,-0.0011709600184261623,-0.0016367138985488251,-0.002054313408303477,-0.0024425162516526137,-0.002792395087814551,-0.0031475251266293194,-0.003512788774142895,-0.0038087934362499853,-0.004139019451197458,-0.004524291251074993,-0.00495629237328845,-0.005342154226462959,-0.005679832692408113,-0.005973145525551636
-0.005398687778060385,-0.005355730007764095,-0.004231010201798421,-0.0020890219104935746,0.0008736571601559665,0.0039565605388179065,0.00650166065253937,0.00824467453730527,0.00907744848899845,0.009305438458497453,0.009118879090299443,0.008644408436425203,0.008083302864690528,0.007326454473656066,0.006629766769628426,0.005945333312042205,0.005225950792423796,0.004549673848488238,0.0038053997423343755,0.0030081134361843883,0.0023098109688984695,0.0017501364204967488,0.001218217372048716,0.0006976663812300682,0.00022746210005803035,-0.00012970004034309034,-0.0003747292183650124,-0.0005058878183940039,-0.0005965796213203218,-0.0008409718860980792,-0.0011781202931605902,-0.0015594164892998273,-0.001992276307124886,-0.0024598137561533833,-0.002941985424457923,-0.003321738256040798,-0.0037521776183643218,-0.0042172465980200415,-0.004501977178155754,-0.004768019768190468,-0.00504700379667159,-0.005176955851605799,-0.005279979485700443,-0.005443961219449908,-0.005481821521952039,-0.005460502830323566,-0.005420639504730422,-0.005417060629317685,-0.005431074718808983,-0.005438328319966626
-0.007222240602649993,-0.006679116659985672,-0.004873198569694481,-0.002298867596071373,-1.7861198835866772e-06,0.0016790446903533695,0.0028019134876474394,0.0036395659640553815,0.0042571767944037525,0.004608096422358528,0.004639512634032126,0.004554093853611799,0.004399833876337773,0.004214603788426361,0.004069643988898795,0.003982334191439073,0.003970720552348639,0.003884925020208081,0.0037114117901410407,0.003390174794263149,0.002907295421186449,0.0024153827479848258,0.001989373701326723,0.0015867734577579675,0.0012941285632334166,0.0011358523564389711,0.0010604139879800184,0.0010926109606069871,0.0010973887080924696,0.0010301848145727978,0.000904516930512341,0.0006582815594430759,0.0003843954317018212,0.00014252300214007024,-0.0001383642406650556,-0.0005859369222609142,-0.0010855808757069465,-0.0015355640616077678,-0.002033903222076213,-0.0025285152021293435,-0.00294371751040387,-0.003300651719077384,-0.0036741248854867004,-0.004067012020238602,-0.004476406248776641,-0.004851412910269654,-0.005187253649494489,-0.005547689284722066,-0.005872586173991157,-0.006136620348091992
-0.007941816150378407,-0.0077222113065557865,-0.0060536930758886215,-0.0031354218930605532,0.0003027933630401155,0.0029125622270943347,0.0042931080969855475,0.005211045495364055,0.005805577333264966,0.0061120618447718265,0.006157905104434293,0.006048153564351966,0.005892728888350356,0.005548562128154504,0.0051261047354423574,0.0048177707498129815,0.004568066981097087,0.004339442124513684,0.004057596521012933,0.0036917284724336343,0.0032507446936244425,0.0026980275558533893,0.00212542278013185,0.0016714584706624808,0.0012652566102611638,0.0009557423762848819,0.0008378795134049454,0.0007815506788099979,0.0007155229803344653,0.0006769769550074659,0.0006313441614862995,0.0006322514342431302,0.000589064823983608,0.00038500166929263677,0.0001176229684176519,-0.0001599864756115051,-0.0006321125580694398,-0.00117574739071246,-0.0016563727742582395,-0.002183343936353467,-0.002776231932074187,-0.003404591586420537,-0.0040036779239541855,-0.004555702609831684,-0.004979480249103675,-0.005445370319756477,-0.005964599589724042,-0.006425802572532713,-0.006893737773440029,-0.007395013319339138
-0.00808216877637105,-0.007922988346950396,-0.006615641211767519,-0.00409121157313573,-0.00041320838217487663,0.002385201208523078,0.00406471336467448,0.0050774564672554645,0.005655468165673379,0.005952193233016333,0.006065994622591453,0.005962070487766154,0.005728556015733591,0.005406036144700396,0.00500350695589431,0.004686406213789196,0.004443650758180266,0.004349980940900481,0.004180614634154345,0.0037967305321894014,0.003359140806181152,0.0028470907882218524,0.002246472995471394,0.0017454860579552828,0.0013998716926063998,0.0012115545057251901,0.001185121096474663,0.0012338365934014565,0.001243092801135985,0.0012017671662970808,0.0010104912184645543,0.0007750368712203085,0.0005199097411723073,0.00021592002243134672,-0.00017510858859310868,-0.0007094679241831768,-0.0013598191326032714,-0.0019881915126056435,-0.0025441993632441275,-0.0031487403470485107,-0.0037951139548628725,-0.004243880759806157,-0.00463027148372615,-0.005097988336558927,-0.0054313947885937415,-0.005755181515563032,-0.006193783572825816,-0.006765315026721554,-0.007205512686321506,-0.007376890805380399
-0.0078242384790682,-0.00752838628250548,-0.005986422450574885,-0.003148347089508187,0.0004969266283886034,0.0032251275022326144,0.004839319846984981,0.005799101010841273,0.006349192339235023,0.006536176805232494,0.006560883234772411,0.006336506185737049,0.0058908432643703275,0.0054508318003300416,0.005081804488719721,0.004836515758391862,0.004701331757518869,0.004505096340223495,0.004203451281702804,0.003849869774837308,0.003358983119717869,0.0028341724038347133,0.002343779358876978,0.001994894401806309,0.0017317284057491438,0.0015242236640310121,0.0014754008894746068,0.0015526490755713301,0.0014936823275592858,0.001366736891950609,0.0011601908257380241,0.0007954435689354354,0.0004310406714559747,1.021316796206586e-05,-0.0005475810003084512,-0.0011623329814925314,-0.001780715999264879,-0.0024096020263516533,-0.003025107535526777,-0.0035450717277387945,-0.004025389242527931,-0.00454143221913014,-0.00492331229303536,-0.005240848887541776,-0.005671156349148401,-0.006057634637312706,-0.006401608096474015,-0.006867701564269105,-0.007300074823682036,-0.007556453066747061
-0.008138483095573084,-0.008137470996932232,-0.007313376988068319,-0.005128878583902561,-0.0013211907622472823,0.002239388897280678,0.004620405935517404,0.005806154567554965,0.006442646638024537,0.006698175454149093,0.006731352360768182,0.006595389655318353,0.006292343600535132,0.005940424738623908,0.005615105622604336,0.005372835077387177,0.005258751773334998,0.0050878679342836195,0.0048363270931089134,0.004468847816904677,0.003915240183920531,0.0033363320161294394,0.002779794380902843,0.002301477613273872,0.0020335619883353733,0.0017398576693202605,0.0015821656445316253,0.0015644083454673136,0.0015479219520961225,0.0015019923154269517,0.001350733408626741,0.001082616372535364,0.0005358751401610807,-7.938836283009485e-05,-0.0007086608192263059,-0.001429603389357986,-0.0020860884617928343,-0.0027586164332684964,-0.003423447378300705,-0.0039810340005562795,-0.004428747991598074,-0.004785839949188896,-0.005146569055534276,-0.005541900001417032,-0.005855916684427326,-0.0061267661421572014,-0.006511454182693555,-0.006930883862876119,-0.007321791282316806,-0.007663747213806468
-0.008111411641290235,-0.007905868451494377,-0.006819917840756299,-0.0045902625751260626,-0.0009165432927132297,0.0025602584505358818,0.005170446592561133,0.006675967390971166,0.007501737081796522,0.007789850705685514,0.007677752111793119,0.007459601125123945,0.007130343353377478,0.006720178547566082,0.006339645035323146,0.0059533722511803285,0.005596817185325241,0.005324649396368898,0.004929992452721195,0.00442682938854748,0.0038626782598377408,0.003158038463797483,0.002453490276847559,0.0018706251367596515,0.0014664616347797317,0.0011343613482836105,0.0008841358994175477,0.0008360688192762562,0.0008319367010248792,0.0007802453027425114,0.0006258875993088799,0.0004185327233010198,0.00015611599385679915,-0.00017999241729669958,-0.0006230661178804704,-0.0011914945568565554,-0.00186434710948267,-0.002551321149320137,-0.0032125110508799356,-0.0038471107927213672,-0.004471835559603453,-0.004984600456626334,-0.005415350597854462,-0.00583700406623423,-0.006225275241856963,-0.006578914718012674,-0.006917295103381925,-0.007306384839615304,-0.007647190399207183,-0.007880977938923945
-0.007738556226129596,-0.0071670425888543,-0.005185777989923392,-0.002099664921024294,0.0010915906484786143,0.003485036398093675,0.004764822282945101,0.005602301387671121,0.006171538454237471,0.006514174639245927,0.00661022443531251,0.00651385691112188,0.006303054945060172,0.005984174898107826,0.005645425858503858,0.00538265937652646,0.005092408050431002,0.004725446022821052,0.0043262242834164214,0.003817478106820376,0.003177652682648815,0.0025386900002189305,0.001937208903700254,0.001374791261298566,0.0008667304633699558,0.0004710921473874702,0.00027806668360209614,0.0002740978504020989,0.0003146639878446751,0.0003270274628521532,0.0002860610841248266,0.0001567544523165143,-3.340092734518287e-05,-0.00024177264296658927,-0.0004731547788603893,-0.0007396663049904333,-0.0010993701847033935,-0.001593799446690633,-0.0022144901345765734,-0.0028622648332297836,-0.0034634148920008323,-0.004018195319204251,-0.004655086341637777,-0.005300413223341842,-0.005838371704154285,-0.00635785284493294,-0.0068502446938630114,-0.007231731564275252,-0.007600303355846644,-0.00799108785316562
-0.007760371719238755,-0.007775123071044923,-0.006497853940373054,-0.003976775873567712,-0.0006864337966987147,0.0028266501851003955,0.005313295523411835,0.0068414372889922396,0.0076470923054217715,0.008110372639017926,0.008377131181038227,0.008432634114746767,0.008258994173549021,0.007843732436451182,0.007265722945547386,0.0065665098306524165,0.005801929300698338,0.00501438308153948,0.004181021082462212,0.0034093351547229145,0.0028017811354770317,0.0021183824086331298,0.0012589942485901572,0.0005624710091691872,9.841283534208253e-05,-0.0003918564785542304,-0.0008980461093108875,-0.0011737567120981586,-0.0012403397989988818,-0.0012611908726502582,-0.0012254109915282323,-0.0011412952120084213,-0.0010753101120121028,-0.0009672054750348486,-0.0008505995311011465,-0.0008347565079893618,-0.0009524059760164785,-0.0011955264572536797,-0.0015232920258512748,-0.001897114801783753,-0.002333085467891477,-0.0028536072396144947,-0.0034499489616074443,-0.004043741969555831,-0.0046405324730534915,-0.005267217636247716,-0.005911257215187018,-0.006540806000064021,-0.007036648920904359,-0.007384229866286995
-0.008321514595574609,-0.008326168745369898,-0.007567389396900485,-0.005633299393042526,-0.0018941965681816674,0.0017252388311698047,0.00435158214222108,0.005652964673847782,0.0065607488297689635,0.007153202200229511,0.007285123592988593,0.0071731449775118035,0.006928746031161958,0.006605060423948097,0.006092347749512728,0.005636963906821768,0.005428193978989298,0.00529852982202481,0.005001230938037501,0.0046056700621595476,0.004149172646994014,0.003527311458173622,0.0029024535951173267,0.0023184565735482085,0.0016906091174912978,0.0012778111255953052,0.001071250359386702,0.0009517229782646943,0.0009303971728522915,0.0009387790413942033,0.0008703372629048318,0.0006588599257426965,0.000396397659762246,7.429847351357029e-05,-0.00036548482589394987,-0.0008821394603949879,-0.0014756492020573206,-0.0020809595963529083,-0.0027093045685247577,-0.003347592336408106,-0.0039699031423779604,-0.004438731054767507,-0.0048974413279299946,-0.005461963289298197,-0.005882209063788546,-0.006291278951279531,-0.006766171065445356,-0.007276153786007697,-0.00770959544571366,-0.008006235910092403
-0.0078112967194236835,-0.007959572587206807,-0.007288708539860206,-0.005592903497849203,-0.0024264810417144434,0.000809676507626382,0.0033277385777741256,0.004775386179935098,0.0057631787078580065,0.0064280447099466466,0.006581033003736838,0.006521615299825194,0.0063081843903306034,0.0059315080763652035,0.005476770406293889,0.005006522673330296,0.004670558628282588,0.004422816045974514,0.004176393650482614,0.0038343021581506704,0.0033695085738843712,0.0028481132924220824,0.002322675617344332,0.0017604214629818374,0.0012520714030320155,0.0008996999123447508,0.0007356910968697641,0.0007133607420910771,0.0007626398481186537,0.0008014725038212588,0.0007724175022760732,0.0006633945478231244,0.0004780176696146468,0.00021565706404954799,-8.240779231856892e-05,-0.0004215375841116823,-0.0009189177298926276,-0.0015322243178785076,-0.00209129089726747,-0.0026189178164087294,-0.0031732403021020052,-0.003841148295110754,-0.004450752938544355,-0.004946283946479053,-0.005362466740428118,-0.005709892453732768,-0.006045119746314596,-0.006496279106935422,-0.006898564776819261,-0.007183250648246862
-0.008066868409040188,-0.007999373197425115,-0.006523553986936607,-0.0036804852540278598,0.0003752604872817261,0.0038876343126232685,0.006171075296733312,0.00748477955080451,0.008098493273736265,0.00830893625985158,0.00837167186040544,0.008177662635524201,0.00774250174635353,0.007145161689451593,0.0064760290342845235,0.005810851430345476,0.0052440553847325115,0.004711585656175446,0.004101316029808295,0.0033587102170887467,0.0026003129814283236,0.001911650305587431,0.0013641189751723232,0.0009859937672369277,0.0007327732892686937,0.000511473862680102,0.0003883846342958978,0.00034194814926482854,0.00036118204762632377,0.0003889433218204953,0.0003509753698257259,0.00022124225905683853,-5.731748693516004e-05,-0.0003218600173925189,-0.0006440987723411171,-0.001088071330591437,-0.0016172654345330637,-0.00227023296773362,-0.0029169645707340206,-0.003483585822642722,-0.0040396182002585025,-0.004666607187598925,-0.00517656400325243,-0.005604321983041317,-0.00618985248598931,-0.006664841746123344,-0.006984455539433619,-0.007300205661318973,-0.007616111780913117,-0.007927266646486191
-0.008086330628797605,-0.008138339792742465,-0.0072032826389577705,-0.004894080139841731,-0.0007432292129276444,0.0034872863074877267,0.006629701319780641,0.00808147621582573,0.008810248406042998,0.00911296818625333,0.009124197604755576,0.008837966610959177,0.008224741166779745,0.00746510763899644,0.006738344553343339,0.006092397965164201,0.005561490209477091,0.005089168112442931,0.004504680578593105,0.003890705916972669,0.0032818117251180914,0.0026066269566867475,0.0019823482156338776,0.001487194022291912,0.0012010203669924212,0.00103161400547938,0.0008762189443642064,0.0007642822101779724,0.0005939167174426383,0.00044556187303151673,0.00019990043457942535,-0.00014133075946976207,-0.0004442350496882271,-0.0008050021997850617,-0.0012849013894634567,-0.001946919384301424,-0.0027032694550859215,-0.0033201000215725383,-0.003932867093970995,-0.004539011615357616,-0.005125441632638336,-0.005602143389222992,-0.005940315876936043,-0.006314247403919951,-0.006596465837870721,-0.006847609165701911,-0.007157525569947942,-0.007429637353180817,-0.0076823301960934585,-0.00792530086649843
-0.008871317986315562,-0.008550879078233667,-0.006347206617141363,-0.0026450383264045737,0.0016403207769759183,0.0044998378839864244,0.006143576786887826,0.007039183374771711,0.007423363188985327,0.0075560346375331405,0.007544942452859596,0.007268313809730295,0.006840738004961364,0.006393287512551142,0.006023511868475849,0.005773931525190349,0.005603747273108387,0.005436314028255291,0.005082454916827443,0.004404439364467674,0.00367308905221783,0.0030403876874833488,0.002513706471154833,0.0020379637975105557,0.0016158907340322974,0.00132551515276883,0.001148241747682349,0.0010884858927356906,0.0010788351658036698,0.0009454908302176651,0.0006615144461847455,0.0003516282983355644,2.9163836983837264e-05,-0.0006349874596968177,-0.001252845811541575,-0.001829609981690488,-0.0026642196520739367,-0.0034044698350270066,-0.004018795340663015,-0.004548145601207464,-0.005091020288563759,-0.005582632140566005,-0.00600633149555906,-0.0064387935353321735,-0.0068505942423748726,-0.0072357800130347415,-0.007571558544522381,-0.007891469289569677,-0.008185069304386092,-0.00844041954664725
-0.008327149626026467,-0.008214032622749366,-0.006737885834010937,-0.003924764209041241,-0.00012713907860163547,0.0029089886731462193,0.004853413771276829,0.0059564043100703915,0.006572601409641804,0.006943756642243446,0.006956673723619384,0.006730700982630977,0.006419300164820614,0.006064352074683146,0.005706687266760609,0.005408053834392239,0.005224135876753633,0.005039717003624696,0.0047822031006923655,0.0044215952685011176,0.00386310445746523,0.0031964417923675634,0.0025832504185648096,0.0020980755996114413,0.0016932677759400408,0.0013938061313079665,0.0012935629126428658,0.0012717174468809401,0.0011625253157463258,0.0010430574154069964,0.0009184365518978432,0.0006524988189718553,0.0002669706840642807,-0.00016942021147492979,-0.0006890320054303819,-0.0012753032005487464,-0.0018305141525456158,-0.0024364766164496443,-0.003097559553435199,-0.0037629912559026513,-0.004328302808480725,-0.004790029250643787,-0.005241547095329309,-0.005666963303067637,-0.00611653500399786,-0.006546659166715529,-0.006934985094780029,-0.007264632707989298,-0.007635332050532494,-0.008120642804391122
-0.0074856839244804504,-0.007469573870366743,-0.006401146976115273,-0.004136155948338356,-0.000558638834232799,0.0023012662853780573,0.003960713568941292,0.005047878665210699,0.0058394138906601644,0.006236050906216681,0.006260345346202086,0.006168461872529198,0.0059394370797476856,0.0056616809138955474,0.0053259071719650684,0.0048794184673767544,0.004540714290878386,0.004326867616214812,0.004075862952150169,0.0037669641379350443,0.0033737518287412435,0.0029016386265327634,0.002279657011208472,0.0017416261840984407,0.0013494856769839818,0.0010623511235131689,0.0009317016633635713,0.0009281755118082845,0.0009393258998845787,0.0008131202252609932,0.0006471369199246541,0.0004913047328994304,0.0003794250117732327,0.00023357248543896133,-8.535569152125939e-05,-0.0006378654579529018,-0.0011935638487517626,-0.0016663308261060331,-0.002107715372321381,-0.002624604336689158,-0.0032649730362402855,-0.003756737784359544,-0.004178363140870588,-0.004632233087699812,-0.005070152763362596,-0.005525302193134675,-0.006024368471640405,-0.0064746646183988475,-0.006871784326928934,-0.007218003213756412
-0.00814389577990336,-0.00789680393052162,-0.006483145225804753,-0.0038171934478397392,0.00010054772683578469,0.003422064929146215,0.00568079142581063,0.007063874540122872,0.00765047670196652,0.007786358180896076,0.007790863743612847,0.007534379914968896,0.007128305619650521,0.00671139364866016,0.006133000810940614,0.005515223139364857,0.00508482731669613,0.004791183470546957,0.00445271359978681,0.0040008822730270436,0.003372179381378354,0.0026991445379778594,0.0020335829901139807,0.0014952318904825155,0.0012223376129583418,0.001071873090840199,0.0009579063590987683,0.0008617340634085145,0.0008807801152877952,0.000913320303195798,0.0007428506465185546,0.0005092094532249171,0.00018838950028389476,-0.0002066338725970634,-0.0006651428218031437,-0.0012213814814943473,-0.0019014560086830585,-0.0025588133921114423,-0.0031916218649406178,-0.0038212483874929455,-0.0044337959517377476,-0.004955981494740975,-0.005402258912360561,-0.005800954370041415,-0.006190087783976033,-0.006593331586075117,-0.007009807575363726,-0.007472179079825722,-0.007862776493607218,-0.00812077688659068
-0.007728471754919321,-0.007469312423511847,-0.006273786540338125,-0.004097577601312404,-0.000915512269650791,0.0019982674490075084,0.0041365862648173055,0.005421821138187188,0.006126314297494666,0.006460378908983266,0.006642796631168513,0.006630221887917206,0.006411177434477024,0.00600389441266901,0.005551325132967341,0.005147052218211105,0.004868028816862044,0.0046570589815671986,0.0043948969842175995,0.003959785319341324,0.003499233698884394,0.0030219344296718766,0.0024906470025165416,0.0018347941381217376,0.0013154716065624545,0.0011572573205117932,0.0009600405493584104,0.0008585066219063195,0.0009702214325309891,0.0009114056740750507,0.0008114986634449932,0.0007684498879980565,0.00050763917667077,0.00016019357732994778,-0.00018282489248154653,-0.0006643481410389462,-0.001190560542034976,-0.0016964979089636775,-0.0022172953032519468,-0.0028203316186344654,-0.003482739223701308,-0.003996923261809573,-0.004491804892985716,-0.004989739287452962,-0.0053219233008936035,-0.005742823066041944,-0.00628658689955252,-0.006688544534116492,-0.007037036622391422,-0.007378078140445498
-0.007202475233380606,-0.006959924555082736,-0.005588473817885527,-0.0032156050819863204,-0.0002514772276674526,0.0023835839439590918,0.004152258129464197,0.0053223239960445085,0.006030319121300011,0.006307911571555763,0.006430370191628323,0.006383660032811094,0.006047110098581482,0.005722905714523709,0.005400997249328284,0.005009000062386166,0.004688695195503057,0.004369660539103811,0.003973415064431451,0.0035625638326149275,0.0030594001685277394,0.0024614842027135824,0.0018415765980155851,0.0012268195082509434,0.0008101446877116177,0.0005708572671252135,0.00037577412533859887,0.0002779305798692336,0.00029101205729786486,0.00037943119426375434,0.00043462503484476765,0.0003112281846850376,0.00014954080989193147,3.2030177620770736e-05,-0.00017657570013145075,-0.0004688427981530975,-0.0008734256147774058,-0.001393839726717314,-0.0019177324141741627,-0.0024476425500084002,-0.0030229322531640733,-0.003605117443416504,-0.004098405111485058,-0.00458101531487396,-0.005110951105664151,-0.005551042879529209,-0.005955862086368433,-0.0064152747355169055,-0.006815483527251448,-0.007123851808410097
-0.007337759125704175,-0.007387482332562773,-0.006156055814941622,-0.0037297201463537912,-0.00038834837015129005,0.0024346641996993547,0.00412615854288461,0.005199435527162408,0.005850091868663444,0.00618485188005824,0.006234731015613536,0.0061104065884016205,0.005888974893851051,0.005502031422626002,0.005078450956415139,0.004747713443477167,0.004371491729778207,0.003965255535931002,0.003578828303635787,0.0031327419318745394,0.0026304406555113734,0.002116696911255484,0.0016622377928883411,0.0013201178773670533,0.0011453110272594041,0.000945876064301889,0.0007144538515582965,0.0006233083809625067,0.0005937882547042643,0.0005876902268805766,0.0006149754762288387,0.0005429004917662867,0.00033521371997829395,0.00016307542626845255,-8.879757887893915e-05,-0.0004908953781126026,-0.0009014729624311456,-0.0013423971562505123,-0.0018483260563864079,-0.0023924621527809014,-0.0029476555750201777,-0.0034866210065391833,-0.004005740700986642,-0.004508641449905689,-0.0049972170423990495,-0.005417536212806801,-0.005788575582046217,-0.006171658937550298,-0.006525648284645022,-0.006835682557890275
-0.007613510526230574,-0.007238558526941819,-0.005581909372407515,-0.0028292187144574855,0.0002916444661885834,0.0028577512233410006,0.004511025538988834,0.005608476671219329,0.006293755987179156,0.006562228561171786,0.0066815924493186995,0.0066236123670576135,0.006233898096923938,0.005752374550791695,0.005391488474703582,0.004994233411173102,0.004570679636972866,0.004280276547329233,0.003934551369789174,0.0034634289707642513,0.0029793471345794915,0.002395969919807103,0.0018118055051181056,0.0014461327187696744,0.0010949886190750654,0.0007842362729595578,0.0006455353740938731,0.000606972036358244,0.0006299423071905653,0.0006268308796148455,0.0005871148745056048,0.0005292407270366111,0.0002988318874354819,2.951477780818859e-05,-0.00022689601485901338,-0.0006555756386886057,-0.0011713736125789108,-0.0016697903994576668,-0.0021913124337323217,-0.0027386067310850638,-0.003295077069993451,-0.0038581203209992806,-0.004408679921168394,-0.004929325285119961,-0.005372807498278302,-0.005793259642315249,-0.006242129286117593,-0.006714992095085315,-0.0071641297747079115,-0.007570105484300714
-0.007613511336415483,-0.007511318243128673,-0.006343325727956606,-0.004037129560669806,-0.00047196745939149295,0.002641361471022223,0.004589884809513845,0.005724225573056974,0.006421444933341399,0.006852080460882795,0.006946554040378714,0.006776905840954205,0.006473926970648024,0.006096928377581512,0.005579240385313987,0.005003602790290609,0.004617749569042702,0.004236547717191901,0.0037703085238728067,0.003323256680159097,0.0028393516921800185,0.0022484306262420895,0.0015749777236113767,0.0009940063767539737,0.0006435330351537335,0.0004248935909863005,0.00036275036516101477,0.00042392113760214475,0.0004145994830481953,0.0004068024637080738,0.0004316778004500622,0.0004300713693554291,0.0003664728824482667,0.0002616586515683964,-3.7110534474336814e-08,-0.0004962397850267485,-0.0009679284255448431,-0.001418656128960193,-0.00196416657102187,-0.0025509636497050036,-0.0031263170217934355,-0.003650241159907662,-0.004190699901046821,-0.004747486154910026,-0.00526655631143354,-0.005751018571156611,-0.006223243924653468,-0.006641404135146817,-0.00703086877820594,-0.00741222252249376
-0.007983614172417986,-0.008022075529935564,-0.006802613826648982,-0.004376023638535044,-0.0008474775246682152,0.002466278448615141,0.004907321090019496,0.006251681621570002,0.007009215082244031,0.0075020844774133,0.007593742666011782,0.007419598866064925,0.007112491560433289,0.00662682403108972,0.006062263263241756,0.00554551869526232,0.005076518887910443,0.00458940657754535,0.004116395258846421,0.00354216416257154,0.0028619926906066386,0.0022252694840080487,0.0016884383495223004,0.001206284462744258,0.0007392898515538454,0.00038717072829346356,0.000255809998776715,0.00025633715065827284,0.0002448232909596605,0.000359793392314353,0.0004550119260159438,0.0004265654207385458,0.00040251641298480505,0.000155645510917827,-0.00030410511895443326,-0.0007363520286333233,-0.0011648122407207407,-0.0016496468700275848,-0.0021571235194406536,-0.0027625727479431345,-0.003402372556718467,-0.0039747957759875266,-0.0045408464404381715,-0.005073298653355463,-0.005561044855376379,-0.006038227753444554,-0.006503648950760408,-0.0069316906507834375,-0.007371495149012337,-0.007844579009726479
-0.0078184032889681,-0.007502732564819311,-0.006091383659205268,-0.00362710072172911,-0.0003599789447158201,0.0026829344646037995,0.004823592579505215,0.0061738059295548394,0.006951496077531809,0.007409578618938199,0.0075095582495242385,0.007332539484560341,0.007010207886616813,0.006566437854586039,0.006118925961256086,0.005645353031359538,0.005035344804799097,0.004377878848849332,0.003746665225478473,0.0032236216957784586,0.0026825780850120297,0.0020601607088964525,0.0015247614095586389,0.0010122296872825175,0.000475281625435273,0.00012000676321001083,-6.228486640833783e-05,-0.00016981626301688254,-0.00022810714059684836,-0.00022178748502541464,-0.00021314519118047443,-0.00022200203065690066,-0.0002495487534441197,-0.00034588819532559086,-0.0005114693728619361,-0.0007329854460579936,-0.0010817232443535618,-0.001534976792859479,-0.0019518528577092203,-0.0023219169423841527,-0.0028305959026844792,-0.0034649108756166515,-0.004069934149680613,-0.004680555819673014,-0.005262276611584047,-0.005810753653810087,-0.006329457372488939,-0.006746352214817949,-0.007114246296953105,-0.007453776753589201
-0.008016461813034706,-0.008097662368500817,-0.007119673916177222,-0.004990868540063716,-0.0014503241903756064,0.0023071947176706593,0.005362302371307356,0.007039767529443334,0.007833005431754287,0.008255553792511727,0.008409925399869045,0.008379473615077892,0.008171034756118847,0.007665291394721348,0.006995166379992801,0.006283450701183429,0.005579037923921233,0.004916924122014736,0.004274878796101392,0.0035781756760512825,0.0028316872110762726,0.0021470350030841153,0.00148489000923757,0.0008663105072814085,0.0004255865556298893,9.037208046826987e-05,-0.00016368113633542078,-0.0003487088789794589,-0.0003432482204815918,-0.0001936054691501298,-0.00016577982992010856,-0.0001534913351837545,-0.00017656354265446956,-0.0003310887846576553,-0.0005992339330706267,-0.0009806694214003024,-0.0013456499093886982,-0.0017098107545230126,-0.002170413256891388,-0.0028095105279117506,-0.003399162339492869,-0.0038587771266357217,-0.004540956653137131,-0.005269251046811393,-0.005804772061452425,-0.006225552389926556,-0.006593426241771369,-0.007012823431968038,-0.007432399626829032,-0.007829412735509526
-0.008016075179660194,-0.007893748554774425,-0.006892942602781636,-0.004903706403879275,-0.0016887117937548696,0.00176529754790842,0.004604103222250193,0.006233607381521289,0.007137002038376017,0.007622787614001851,0.007798631502665849,0.007675496242912556,0.007384484079310712,0.007033777607610412,0.006588083135195959,0.006099091941706976,0.00558427307063441,0.005080717049367258,0.004605976883231539,0.00408062516867584,0.0035451120285379533,0.0029427900221509554,0.0022018466967283525,0.0015079981729292995,0.000985205627413866,0.0006842397387781146,0.0004739149056080909,0.000346002382487631,0.0003119082351946844,0.00029753604905752767,0.00025734331697692777,0.00019399522128055397,8.418847098448685e-05,-0.00010430744686746548,-0.00040891678308982963,-0.0008165581369125018,-0.0012841697816913737,-0.0018424214449684721,-0.002415853716913366,-0.0029614078135961606,-0.0035376465214028256,-0.004140751494100637,-0.004697416352477973,-0.005216932113606553,-0.005717020278581223,-0.006153949799899808,-0.00660962021012355,-0.007111509486451249,-0.007551524254199571,-0.007897517447864837
-0.0076978130399958655,-0.007695536532476715,-0.006721829499113344,-0.0045322779612958185,-0.0007890399365201418,0.0026072310804856995,0.004917191766444027,0.006170839982505048,0.0068940331404419375,0.007250979051709123,0.0073711182583120725,0.007225031884481992,0.006849649372274662,0.006365018433053537,0.005770071955474972,0.0051849270220739934,0.004753369102926335,0.004522656035309686,0.004247703146820524,0.003740392693903856,0.0031965730440964546,0.0025837758908374936,0.002047525730450388,0.001681159171984118,0.0013524761591154004,0.001068244731110094,0.0008862774523816422,0.0007990250901619114,0.0008015197068481182,0.0008076823246897894,0.0007935264321842081,0.0006532149248904565,0.00035503487696819457,-1.5645783404595982e-05,-0.00043735778887273713,-0.0009352900701511383,-0.0014772643884828137,-0.0020139237227291113,-0.0025775832609187675,-0.003219331763183018,-0.0038034187032526625,-0.004260266433746634,-0.004721692693856243,-0.005235097090952851,-0.005722355951216671,-0.006122791964685892,-0.006476951511212838,-0.006908750421938787,-0.007292115971316922,-0.00756777710082171
-0.007431685995231793,-0.00750848604526409,-0.006609438911926921,-0.0044655064851131555,-0.0008125913044650613,0.002270980657745509,0.004318431923774829,0.005468317627683648,0.006191840575481719,0.006540274065593577,0.006545129722580894,0.006383338970141719,0.0060202804455789525,0.0055112537524570245,0.0050573981105201385,0.0047211914515856495,0.004472484415593918,0.004232561407460319,0.003998568323719047,0.0037038342301118827,0.003288439227609118,0.0028044875310643063,0.002244515163956733,0.0016852820599079909,0.001407275014666346,0.0012587622575897688,0.001147178132027503,0.0010467367589062975,0.0010144081466420332,0.001004252311162118,0.0009234596270685293,0.0007761074875272706,0.0005163261844565709,0.00010880445570267881,-0.00040552974672451855,-0.0009722129713309017,-0.0015620359406919558,-0.002175754490265546,-0.002756221381447054,-0.0032604402279564973,-0.0036644864701697653,-0.0041315062835749995,-0.004614013912278183,-0.005002102781886964,-0.005373577200600085,-0.005792690672892466,-0.0062529040317264905,-0.00655811781830758,-0.006848863331365127,-0.007214569630054042
-0.00586173207739069,-0.005632426864061094,-0.004020345226615253,-0.0014265385843904635,0.0012033331618641044,0.003186515118734605,0.004398649163960244,0.0050768000645953415,0.005441857735934012,0.00553983592767165,0.005340552821997261,0.004998976014010955,0.004608134504592447,0.0042440706518773455,0.0038805988658724474,0.0035581429604772757,0.003327012036027363,0.0030056304176612997,0.0026429209224713792,0.002352081176242871,0.0020614947135788124,0.0017062055637665958,0.0012537994159449728,0.0008869820750456592,0.0006712675320733715,0.00062159753517516,0.0006288886293067126,0.0006918088921816446,0.0007912825705385301,0.0007412813368948552,0.0005883039313319263,0.0004015610837396155,0.00021513829995957346,-2.7614510302324113e-05,-0.00037070154777140286,-0.0008059045827170445,-0.001261542489632983,-0.0016861649507123877,-0.0020660365672540244,-0.0024671653931209164,-0.002923690121152464,-0.003411070654931531,-0.003835097445472129,-0.004176524863573347,-0.0045300790894235695,-0.004879315609654231,-0.005219435847003591,-0.00556659722508749,-0.005867587767888961,-0.006098419767472937
-0.007293394595026817,-0.007011602640186185,-0.005521234383906501,-0.002959378398879084,0.00025282959083753963,0.0028631429076626295,0.004434591059747825,0.0054469511481754565,0.006056065932729977,0.0062984032303925715,0.006315557763088588,0.006161746605830181,0.0058440255770931225,0.005392743440720223,0.004925169223806839,0.00451326026194051,0.004070848755499592,0.003669806118140976,0.0033516892430590912,0.002876440028258346,0.0022254192879140834,0.001657120172772317,0.001260142482512225,0.0008677992242952962,0.0005259455004921089,0.00042663524469971,0.00045404264601321584,0.0005295552212355181,0.000600049102822445,0.0005823012250967648,0.0005558873187474978,0.00044505599974174645,0.00020403702387773032,-0.00014722143591079575,-0.0004711199173276133,-0.0007890148898852231,-0.0012190914924034093,-0.001702420119366695,-0.0022382657588254705,-0.0028322994804320634,-0.0033994205843036625,-0.003908660620928932,-0.004327753316915154,-0.004698672791128284,-0.005147544021142721,-0.005608087694165795,-0.00605449895942298,-0.006488028502726011,-0.006826774982020288,-0.007036926028831666
-0.007458840777521997,-0.007353337315308436,-0.006115761596437399,-0.0037284911050538567,-0.00030924723854745535,0.0027010877012120294,0.004772302625284756,0.006074738596902809,0.006781682220732471,0.007065938614579902,0.007080168298922743,0.006913880272511036,0.006614009385113223,0.006130437535917139,0.005574354416824765,0.005116911315976776,0.004684107638188447,0.0042103510499604735,0.0037708165355236144,0.00334956495924167,0.0028621579007867813,0.0022896743688587966,0.0017526218777832614,0.001375700881785912,0.0010252703478000717,0.0007338332257583323,0.0007084048042644052,0.0007338031306253322,0.0006851863183127755,0.0007399658362501224,0.000697514118965466,0.0005227278571164057,0.00032067656520213324,1.950989838895576e-05,-0.0004236970881314466,-0.0009090785370726843,-0.0014110875701747391,-0.0019144941743319804,-0.0023861886847742625,-0.002950379033191985,-0.003577626218287437,-0.004092305617226258,-0.0045755921827321105,-0.005081921862447175,-0.0055780891092969955,-0.0060300564277928894,-0.006422848835173071,-0.006764910702129267,-0.007116712853019929,-0.007504042047603584
-0.007953406449556118,-0.007879953686336613,-0.007113327922062435,-0.005359778360928762,-0.002024293386918785,0.0014668746196554968,0.004017927278148371,0.005461451530439963,0.0063757719219990116,0.006935364733363439,0.007200193053610883,0.007195951592996608,0.007006108984295593,0.0067074354721939474,0.00628748195938995,0.005816825676434774,0.005399712891663883,0.00503958254774467,0.004727888951302322,0.004321972052903393,0.0037750835066493686,0.003126126929392833,0.0024469878519722895,0.0018804252618989613,0.0014143473666006921,0.0009550835470647697,0.0006437444438234071,0.0005243886875155586,0.0004801742461639276,0.0005289885174564689,0.0005406357194906035,0.00045082542042527567,0.00026034430337208865,-4.506523326807057e-05,-0.00031971859455825325,-0.0006586013598159132,-0.001078819700356421,-0.0016185137939626927,-0.002205820092121249,-0.0027453866788091637,-0.0033622011673896807,-0.003996827739886309,-0.004519456208148152,-0.005000576944709839,-0.005553213332017022,-0.006064074568108965,-0.006476942674552274,-0.006886409979055179,-0.007334659249953017,-0.007818398865131566
-0.007035256505348812,-0.0068366343355866195,-0.005665788971307744,-0.003469894458664619,-0.0003804401176662836,0.0021574292895977826,0.00380779898068658,0.0048844071263399605,0.005614640047849696,0.00598487688560363,0.006048220393849246,0.005899683186044491,0.005585213302063386,0.0052232667471029505,0.004844059440835179,0.004502255745259452,0.0042609291584228565,0.004127294179830105,0.0038968598300783554,0.0035828195316626944,0.0032261251891635852,0.002707519628800331,0.002151854047732707,0.0016961256170478472,0.0013979378433738208,0.001186841373588482,0.001012242096714161,0.0008261276483940349,0.0007212801935191628,0.0007098436189062657,0.000725442085400326,0.0007003819834845099,0.0005292068482929802,0.00015560500294343763,-0.0002362628737032972,-0.0006225742481992862,-0.0010028500218282623,-0.0014859563476825191,-0.0020476492229218215,-0.002640088007942659,-0.0031900538133306107,-0.003693769005870874,-0.00411555114560429,-0.004495663277828053,-0.004795976986807002,-0.005096634297452579,-0.005485791180936054,-0.005907545666870229,-0.006317300717190627,-0.0066950595753615776
-0.00583899136487977,-0.005379131060218138,-0.003809831721279752,-0.0015416170920913774,0.00034333721828704684,0.0018710227635993636,0.0030745162745834907,0.0038908619029659353,0.004388390433756645,0.00463416657132668,0.004596469800754537,0.004399285245011172,0.004154886624606759,0.0038278521349990966,0.003510407528947568,0.0033217194792649492,0.0032748071567713435,0.003158848799937402,0.0027951613674712466,0.0025031218779717752,0.002271778748999822,0.0019049677290600378,0.0015312306026433054,0.0012297373879203057,0.0010033403165286062,0.0009192794522528856,0.0009273387936537472,0.0009121139756743298,0.0008053961379539731,0.0007029558219600638,0.0006210355775362937,0.000501594614855065,0.00032866995730906516,8.3226253826156e-05,-0.00022515492832042496,-0.0005383544777483521,-0.0009091315011960609,-0.0012505797077810817,-0.0015258838224980742,-0.0020032813574854366,-0.0025302572761025997,-0.0029347470146199963,-0.003322236761763958,-0.0037011209677022365,-0.0040022675065667125,-0.0043004719658342365,-0.004642696239213242,-0.004970676255051674,-0.005320691322588008,-0.005719537037705769
-0.005443237567276861,-0.005383471274339265,-0.004565747208230703,-0.003008965079783215,-0.0008532551956549238,0.0010690539239818612,0.002443617825484733,0.003492537482799089,0.004159891856546215,0.004473525615456529,0.004542945736157262,0.004431088331089911,0.004254160458315973,0.0039668780642772615,0.003619841336995949,0.0033669048217360303,0.0032108089857780416,0.003051377863673745,0.0028628071779504202,0.002611489354487994,0.0022814977800780837,0.0018522881936750132,0.001337254976926823,0.0009250601978826878,0.0006913348207129142,0.0005419944397763854,0.0004241163121645203,0.0004006985535714388,0.00043759200089655935,0.000377755895768104,0.00038437780217501677,0.000422074576326574,0.0003808642333668702,0.00015914102085379958,-0.00014026083614194967,-0.0003163761053180416,-0.0006320225651415286,-0.0010030328732197683,-0.0013074920132822496,-0.0016562517654703653,-0.002020606363032484,-0.0024029019234403214,-0.002802632052293622,-0.003201126303061293,-0.0035710850070852927,-0.003941208360816367,-0.004303453001036397,-0.004608962140732327,-0.0048619634981200135,-0.005065007931382904
-0.007106941338023494,-0.0068849531417758195,-0.005412360214918651,-0.0028112599282957697,0.00045512658866804213,0.0031575884539807846,0.004718988072970908,0.0057369084414383535,0.006391027387020703,0.006676517416460705,0.0066557671672173415,0.006417696095885445,0.006031919846162823,0.0055583503894625075,0.005063593767613794,0.004577746375670669,0.004024025290172594,0.003457842274221974,0.0029293355144154767,0.0023599465109957873,0.0018070919231851963,0.0013610842625677282,0.0008874780857852675,0.0004078560330829049,9.95154195906051e-05,3.691817319342151e-05,8.889567878955189e-05,0.0001432325706807017,0.0002486596764758314,0.0003401019884467611,0.00034343746227511227,0.0003061571144640826,0.00020253521674340642,1.9385281409119865e-05,-0.0002649860781998071,-0.0006143729946021936,-0.0009851276105095675,-0.0013826858460838692,-0.0018147170326608768,-0.0023801562779531917,-0.002982909004778494,-0.0035174105447348994,-0.004038968085902989,-0.004581684837932227,-0.005142159300988499,-0.005611765271701844,-0.0059918871012888284,-0.006330819720273147,-0.006702323289441865,-0.007129592890643938
-0.006336181436202462,-0.006272376327935018,-0.005117096154054694,-0.002965859388930355,-0.00013881879827720313,0.0021456865044056426,0.0036304085758981455,0.004465635223712337,0.0049964788227200825,0.0052770610514491926,0.005264680301286889,0.005147190801525398,0.004874810321441387,0.00442624707432066,0.004069218960874092,0.0037672403291868282,0.003563523971842543,0.0034287170884494266,0.0032168914756787116,0.0029539629084350864,0.0025865097968289993,0.002107129243439953,0.0016548299093564662,0.0013114445668117721,0.0010507165168495017,0.0008473047425647672,0.000830956821079776,0.0009135778801360584,0.0009241726421378199,0.0009319836928267216,0.000897564101754733,0.0006926242027474359,0.0005225356259948503,0.00028120538884839156,-0.00016595842181472333,-0.0006639923928165946,-0.0011426801129344104,-0.0015711812245325744,-0.002035258262974212,-0.002502412019159516,-0.002962364908229622,-0.0034522306137381915,-0.003843291961615411,-0.0041107021569989155,-0.004410574536713705,-0.004754649254653056,-0.005137033038654503,-0.005487685024066484,-0.005816339259327208,-0.006133373679937825
-0.004540409362164862,-0.004100737481807864,-0.003079662430293962,-0.0015607347930799561,0.00015899106364746505,0.0016161616386987643,0.0026888269112317342,0.0034639107700495443,0.0038730115670264735,0.003919172035135696,0.003825034982876015,0.003688652515199666,0.0034627063250516742,0.0031491615527858446,0.002849597670686275,0.0026310357868831236,0.0024769351654727813,0.0022820662009209866,0.0020786144348904616,0.0018973482416704678,0.001715801033585716,0.0014428243236966128,0.001040385318304594,0.0007921444732289187,0.0006335037163788392,0.0004839380155431123,0.00044090713980307074,0.0004687956651375881,0.0005096378460404697,0.0005276198274144593,0.0005185555801548878,0.0004489187945200558,0.00030481616644143346,0.00014372217277710416,-9.762962871860712e-05,-0.0003987904095426774,-0.00066008496270619,-0.0009431709817447879,-0.0013368521073960683,-0.0017254235717323086,-0.0020382857294828347,-0.0023292749148043795,-0.0026514517532416335,-0.002991680381516528,-0.0032189679203640854,-0.003458125517426587,-0.0037947790946462165,-0.004140097532446477,-0.004399332388423984,-0.004550507725976074
-0.004988340090091307,-0.005040305376734411,-0.004757016449611642,-0.004102257319097895,-0.002429573983654907,0.0001870153132998995,0.0023549480288267547,0.004613961642743576,0.006532695154600622,0.007838901085898532,0.008441325996004357,0.008586485141966886,0.008540721369445314,0.008293722407273317,0.007852291560946072,0.0073306123090384825,0.006800708159524114,0.006182134176823798,0.005393381358474995,0.004590255998874092,0.00380419078151223,0.002994803418441118,0.002154160455142211,0.0012457576292877728,0.00035262794071135186,-0.00042472235528143035,-0.0010572855188136273,-0.0014806141255984699,-0.0017982029513282872,-0.0020129548753420675,-0.0021128025465265003,-0.002184912397487859,-0.0022596233221391774,-0.002251847486862499,-0.002230077104386514,-0.0022674277565221976,-0.002352256168841157,-0.002469378708161982,-0.0026033079340152207,-0.0027490810895516725,-0.002958189345506222,-0.003304434801992649,-0.003655384510526149,-0.003994087227139128,-0.004368821186577599,-0.004616164104818171,-0.0047732846466908944,-0.004949967295980729,-0.005130150551127926,-0.005304104980390355
-0.006294591234208662,-0.006218265075009916,-0.005381845741004383,-0.0035848440460866603,-0.0002661243257001623,0.0031387294567437815,0.005920733273059065,0.00750143844794501,0.00820718967264162,0.008375726944193957,0.008305188262526499,0.008125722793128684,0.007873633938551896,0.0075061924386735064,0.007050611056923174,0.00655174212470391,0.006063313354701993,0.005518898215146007,0.00485784506064707,0.004093859733252423,0.0031996584785029853,0.0022516665780221434,0.0013201065524053909,0.0004787387946630028,-0.00022837941999725474,-0.0007250427910435723,-0.000997750748007931,-0.001100833708275287,-0.0010726899472195846,-0.0009601877538679254,-0.0008877547288458082,-0.0008892690074716867,-0.0010011837466844774,-0.0012405435523298932,-0.0015837742698113463,-0.0019973392317266096,-0.0024753568156189684,-0.003012544511402987,-0.0035749605232412718,-0.004050863325471335,-0.004522834772361981,-0.005073484675932087,-0.005519921388028919,-0.0058619347795449165,-0.006140541167260521,-0.006329907364825725,-0.0064375393827162215,-0.00648654526053354,-0.006521100131397998,-0.006559532467105576
-0.006886036461845136,-0.006992230555284967,-0.006055479132282303,-0.004012832176947878,-0.0004918104218507704,0.0033264720731428616,0.005498027405714249,0.006673282495792979,0.007228235146998554,0.007601933911727934,0.00776767821267049,0.007613638677242507,0.007398419761217328,0.007203453567351335,0.006903190006516725,0.0064185120045236535,0.00582298114496965,0.005301137803892465,0.00481029762002927,0.004288417301614005,0.003709783973550131,0.0030488001282823734,0.0022839520088512085,0.0013961296676352098,0.0004984363320155985,-0.0002143159563892862,-0.0007518835016068806,-0.001177343201410406,-0.001437170064585383,-0.0015179157805035107,-0.0014778622508101254,-0.001387628493333821,-0.0012993852082968389,-0.0011938106845722982,-0.0010818451674231952,-0.001079789645029742,-0.0012382382717323302,-0.0015025885762017406,-0.0018746934869136875,-0.002370119688470195,-0.0029133810046716637,-0.0034446300827797502,-0.003924275598409373,-0.004505738839447789,-0.005181527560843473,-0.005774837796485081,-0.006190236759552108,-0.006424314098581899,-0.006623383372530207,-0.006811182680555708
-0.006496218396843968,-0.006605036530470364,-0.005554591773283658,-0.0033328907443591006,-0.00019994201654296054,0.0033035578633620814,0.006016726783367091,0.007589207060699345,0.008329815405238764,0.008510467486603786,0.008562525593067992,0.008546005099470053,0.0082931652405433,0.007899094895152196,0.00747889401073996,0.006932179559244074,0.0062744695759397616,0.005616978058263458,0.005001902929720508,0.0042334260002935145,0.0033599928253998843,0.0024881368538188947,0.0015779412916398985,0.0006718433162519905,-8.078496117481413e-05,-0.0006413496026959536,-0.0009847002467131608,-0.001236326213935178,-0.0013628384650381093,-0.0012694770416981738,-0.0011108471384861814,-0.0010306551297117087,-0.0010467382723091314,-0.0011769809677374297,-0.0013696672666233568,-0.0015508650620614465,-0.0017936096571712467,-0.002140141243074555,-0.002539189183806271,-0.0029432452032431542,-0.0034047549712206394,-0.003987416478943619,-0.004547185928788066,-0.005053823663097835,-0.005564859035651604,-0.00589612264605395,-0.0061697685984917275,-0.006525327498948061,-0.006774637332568799,-0.006878848611202654
-0.006757620530233828,-0.006585299965108733,-0.0058080036186773645,-0.004361459328910515,-0.0022928541415193518,0.000570030059572935,0.0037592268034807395,0.006426999326037614,0.00802666006066268,0.008799783369634615,0.009108527005962859,0.009110203476455367,0.008979735560010369,0.008772407735124981,0.008305235532712221,0.007657842158299263,0.006996057374734219,0.0063496724525058485,0.005687647079729804,0.004945842559251339,0.004193300738922145,0.0033431925159924775,0.002360990944569647,0.001394333973766566,0.0005067102551946893,-0.0002741058224029881,-0.0008722894422549221,-0.0012793433586716888,-0.0015080888942868686,-0.0015910139559568452,-0.0016063556762674798,-0.0016195909733116136,-0.0016042984872515877,-0.0016585840386138019,-0.0018423224097174954,-0.0020270292822675137,-0.0022573760608512743,-0.0025884871541721377,-0.003016694538403477,-0.003490577161191503,-0.003968598004383517,-0.004447118543184323,-0.004940832230562746,-0.00544964490229675,-0.005906452690104686,-0.006291121410239936,-0.006585422186179174,-0.006752979244340339,-0.006908824680630553,-0.007083121603687671
-0.006741891164318732,-0.006696343433046359,-0.005629886435251183,-0.003613180093923245,-0.0008833954516990349,0.0019431476703764801,0.00433229891101809,0.005959571007672862,0.006819305562041508,0.007175245350720086,0.007233901255762197,0.007095964560850056,0.006800549022916339,0.006415621025002369,0.005983337398460446,0.005486475306374354,0.005086813665920947,0.004714865958671865,0.004152030801625572,0.0035138714242840107,0.0029318568829609544,0.002436082137556894,0.0019998303534454797,0.0016429202377110503,0.0014726021268500113,0.001391199046756922,0.0012989593461049957,0.0012744307929003786,0.001177054057778794,0.0008552320133703234,0.0005104787123047651,0.0001498277817988086,-0.00024236115086691043,-0.0007052867865823949,-0.001242768615650604,-0.0018320373109535955,-0.00242171092463199,-0.0030044551917476144,-0.0035072922400627535,-0.003987835776581541,-0.004492610093150389,-0.004865491220644774,-0.005081596579348297,-0.005249521617823986,-0.00551983373878968,-0.005839819721828416,-0.00610214761373874,-0.0063579343703511785,-0.006557097747562797,-0.006672533505525261
-0.006935108381060304,-0.0068669909001814215,-0.005757415679656485,-0.003730244808999992,-0.0012374550296368606,0.0007649674591509304,0.0023543872443937282,0.003659614283060901,0.004676270440473251,0.005302073964228775,0.005749792082640093,0.005962379734974547,0.00580822740520575,0.005647486207069895,0.005430606579636485,0.005094246953935802,0.004752438701227064,0.004406865585997749,0.004027416989340859,0.0035338851823054837,0.0031005550490241923,0.002679454713150197,0.0023128157796792935,0.002121139346888791,0.001972123851210724,0.0018551267471848029,0.0018310173106260393,0.0018319249372404593,0.001769929032426706,0.001571355297060497,0.001260034910556934,0.0008601465726260248,0.0004800105962157726,1.4955489001686393e-05,-0.0005281438445456156,-0.0010977007111281011,-0.001628816371565538,-0.002113380004235589,-0.0025779419507020005,-0.003009312638063786,-0.0034579117009400136,-0.003828394526209838,-0.004080348581322796,-0.004414808567139598,-0.0047844352042465356,-0.0050988703298200655,-0.005398711404498589,-0.005727988606683665,-0.006057256042710068,-0.006351569751289282
-0.004148401875005652,-0.0038446659726824803,-0.0031245849923515804,-0.001992129249295809,-0.0006215071197696213,0.0005218034814577901,0.0015656535638724316,0.0024581362923590745,0.0031194800996709603,0.0035220641410529,0.003644989674507456,0.003558110595578517,0.0033754086182764247,0.0031921489318796053,0.0030313244287873144,0.002890972098388785,0.002725341070763608,0.0024318536732679877,0.0020289662764382903,0.0016556947680461196,0.0014167350965958439,0.0012928260755361634,0.001224970068396901,0.0011872659158281035,0.0012125761070059112,0.00121403278016845,0.0010200127323128872,0.0008447772307525539,0.0007972615413285585,0.00079915313053063,0.0006914185153627564,0.000489813733750184,0.00023844232406113814,-0.00014765122916338133,-0.00047650757819131415,-0.0007345202963975512,-0.0010212889056828388,-0.0013477786662051442,-0.0017378326024914124,-0.0019316598230614504,-0.002092817330923351,-0.0023449227527423022,-0.0024678737747652626,-0.002578386095665459,-0.002739646604615813,-0.0029503091609051606,-0.0031571649373956113,-0.0033937126183826113,-0.0036762153443489474,-0.0039930441941712315
-0.005351777801087418,-0.005141931799247621,-0.0041687658367524525,-0.002610809551651078,-0.0007678074926473095,0.0008806745403978844,0.0021103802847555597,0.0031063122910955977,0.0038835941741506234,0.004299398965952119,0.004428885901666146,0.004413309395008325,0.004436814450436458,0.0043101486424523845,0.004049571752391365,0.00386340334430486,0.0036024832308150186,0.0031784155928575673,0.0027470997953609835,0.0023916181949328753,0.002095002728092038,0.0018051792544962239,0.0016217122919256468,0.0015449558076450608,0.0016298679037979394,0.0016198529193630947,0.00149854127302221,0.0014965533726714175,0.0014648735334309726,0.00132367670430146,0.0010906325563885622,0.0007626775380349554,0.0003310519157624075,-7.126166138656923e-05,-0.00047206917963025396,-0.0009392211662432431,-0.0013899711411498393,-0.001853071797166484,-0.0022739598412688704,-0.0025592634729220947,-0.0028277982888092177,-0.0031665214662590143,-0.003434434177210313,-0.00366380138563616,-0.003882124976263826,-0.004059322851449685,-0.004288457199271446,-0.004671965259592586,-0.005060055012904379,-0.005296159992565638
-0.006818555211806121,-0.0065391107549614,-0.0055416093418522204,-0.0039581123896401255,-0.002136467336250335,-0.0003405252293693035,0.0013590112172352676,0.00293134840698024,0.004325893491880654,0.0053552991057347794,0.005948772616721644,0.0063644828075862985,0.00657006730263978,0.006607183854870087,0.006512489247699979,0.006304885880924041,0.005870374643023418,0.005253192454363255,0.004623179902971578,0.003964837362414085,0.0032793270574732127,0.0026207974295603394,0.0020053552428653787,0.001476538018982341,0.001087980791220209,0.0008886223568023687,0.0008146367828690892,0.0007458850323234344,0.0006951240574898226,0.0007568091063137579,0.0007736407593639175,0.0005866097802846256,0.0004030032293420622,0.0001672630343460276,-0.0002086264403808292,-0.0006050554065278978,-0.0010727975218692237,-0.001554179944293017,-0.001984038954394204,-0.0024338854045348034,-0.0029362152733215237,-0.0034126668736672223,-0.0038681877136947894,-0.004286819321584387,-0.004695818165822854,-0.005134552041436812,-0.005599312309870776,-0.005973268768086224,-0.006305479666568103,-0.006633169919815576
-0.005979336297302914,-0.005889449864021737,-0.005535513364006056,-0.004881377839191411,-0.0038218507439369657,-0.002496110700298442,-0.0010406059756560063,0.00035363819591274293,0.001546894926164103,0.0026215421767687556,0.0036633310556825407,0.004432518083580132,0.004914205902666612,0.005253818681093939,0.005379707044306799,0.005308670266965676,0.005148144108721373,0.004868874127086321,0.004384175920182202,0.003789668784330442,0.0031634995910812982,0.002522216703720768,0.001953021431457387,0.0014612536355671079,0.0009745903478438203,0.0005643435075711448,0.00032900423402774806,0.00021371331966081684,0.00018569371694853758,0.00021446144772148908,0.0002470865990050662,0.0002336414560792512,0.0001911501023874627,8.900639744099732e-05,-0.00010308468535485641,-0.0002966241034743551,-0.00045101299734574374,-0.000717179892218978,-0.0010845421527778034,-0.001388297612703008,-0.0017737147855575047,-0.0022279039343276372,-0.0026594027684172256,-0.003049562622702988,-0.003384024843517096,-0.0037851472624601573,-0.004247377351247798,-0.004684814433037869,-0.005075963774322023,-0.005417248205869639
-0.006745746541888496,-0.0066618621503880095,-0.0060189206237993035,-0.004912080366555551,-0.003501495036731987,-0.001852704683244571,-0.00010515523507961478,0.0015192884984031173,0.0028771385990017367,0.004017952423721851,0.004844608968455979,0.0054420012192146925,0.005881422059925783,0.006081243635448354,0.0059544723581225175,0.005692240347251358,0.00546681770968012,0.0051894936486202,0.004707534230273981,0.004160395993374741,0.003579062067935282,0.0030256851065671784,0.002643297174323159,0.0023391543534920906,0.002079921788231504,0.0019212802848513463,0.0018021415607382119,0.0017659482592458536,0.0017127363628129568,0.0015792223210132838,0.001385908026982407,0.0011734014984768422,0.000969788028517795,0.0006374479907595897,0.00027786757508184066,-0.00010495042622551769,-0.00063959561586256,-0.0012222085906783222,-0.0017348524029132245,-0.002243074911463871,-0.0027513879308658762,-0.003178796106368714,-0.003594555713879377,-0.004144209813288664,-0.0046438636121676966,-0.005034021773334892,-0.005362508233662268,-0.0057556364141603976,-0.006171861425516775,-0.00657310427640669
-0.010162374096854563,-0.009780523493189038,-0.00845814692983017,-0.0062500110393434736,-0.003580309489419732,-0.0009239164805806506,0.0016952240468052552,0.003985830872099144,0.005760778824432246,0.007021289675568269,0.007859075158373826,0.008467489387122159,0.008609259233528621,0.008484408935887082,0.00822805660102194,0.007810045438047302,0.00715057845067044,0.006358466563101305,0.005552620838228706,0.004821124245168684,0.00436523983621676,0.00393711693377817,0.0037411537917000147,0.0036367831662895873,0.0035203081697351584,0.003508366763659059,0.00337830091659334,0.0030272939856770035,0.0025841149178060414,0.0021419747990226706,0.0015568613505419608,0.000850049507132461,0.00012782074396635505,-0.0005243508325842729,-0.001165967039426849,-0.0019178558473677716,-0.002735645805700454,-0.0034720405330268996,-0.004070320661619893,-0.004636519284745735,-0.005107059949677592,-0.00560008846500742,-0.006063616973432933,-0.006470869760140767,-0.0069313628149488245,-0.007435609858150584,-0.007903783565041783,-0.008347706274525732,-0.008872093878964444,-0.009430635953906814
-0.010217138415262358,-0.00994262007094409,-0.008933153011151322,-0.0071110969326067435,-0.004675057158577318,-0.002095022762160327,0.0005534287476195191,0.0030924518008566015,0.005110627717521281,0.0065788787394871,0.007615084036878669,0.008306507425361235,0.00875555748328366,0.008915277286224545,0.008883841327974002,0.008649232790292028,0.008223801070494379,0.007629627545713487,0.007037014981505455,0.00628377047227774,0.005503531152680167,0.004802030337384733,0.00423348124813819,0.0037677402549263724,0.003374204484881734,0.0031013727314192826,0.0029359340388855153,0.0027717466124175722,0.0025209906056273537,0.0022236291399012325,0.0019042795182625933,0.0012972018336209446,0.0005794542056541586,-4.936784430896909e-05,-0.0008376516437800879,-0.001569546309768955,-0.0022776120248364953,-0.0030986774323785485,-0.0039054153216372743,-0.004557261070874578,-0.005195470654570155,-0.0057942957742752425,-0.006362104708626058,-0.006958395395796103,-0.007553290537541124,-0.008015972593562916,-0.008538809474807365,-0.009130532914351697,-0.009621668979635836,-0.010034178774413332
-0.009532206440058415,-0.009463009581749345,-0.008627383251475515,-0.0070185264573999415,-0.004799709589026467,-0.0023136683016199253,0.0002591339297406161,0.0026207204158164668,0.004609753241306165,0.00620004089400675,0.0073242179085875915,0.008064029174716367,0.008513465673862573,0.008734901390467557,0.008811152531934522,0.008715435725320153,0.008389939393983515,0.007846934629165393,0.00718207445728548,0.0063867348590340494,0.005464761141524137,0.004631215011172572,0.0039816392691877185,0.0033861422052633267,0.0029201249979591212,0.002630169621497544,0.0023941834532358545,0.0021764721318513567,0.0019897079943469575,0.0018381224366134433,0.001593602375531122,0.001195131588670842,0.0006514482129036662,4.33096965975823e-05,-0.000569430991911147,-0.0012049792727320753,-0.0018941980178592028,-0.0026486698992364863,-0.0034172965242876105,-0.004124312870895959,-0.004740240857462732,-0.005365459264217706,-0.005934762653768438,-0.0064956217080738565,-0.007044057724152431,-0.007552391059740461,-0.00805227516884929,-0.008528680734009622,-0.008992011529016006,-0.009441122782421344
-0.01021530843338237,-0.009674336829612974,-0.008043879238951014,-0.005667275257444446,-0.0029881626431534744,-0.00030801725008902393,0.0022611626665846782,0.00451505074793826,0.0063001769980347505,0.007540072348276469,0.008340950562356937,0.008837619057411499,0.008971930015909834,0.009059871816355316,0.008978112527231885,0.00861154492937117,0.008008951005440136,0.007303822324692556,0.006430614972251837,0.005672847397133771,0.005098866649781812,0.004541487427956687,0.004118300135562009,0.0038013811440817127,0.0036610458319299983,0.0035890156214848884,0.0034472230455446823,0.003214909278788245,0.002767291785576879,0.0023253391303088688,0.0017985043810004172,0.0011884067216408735,0.0005262021247794487,-0.00032997169035230487,-0.0012900891770548475,-0.0020983914280643984,-0.0028639967647167276,-0.003601597804269571,-0.00423437052227214,-0.004904369277008955,-0.005507420107331765,-0.005995607537618333,-0.0063908244125185955,-0.0068624416625449386,-0.007375348728202828,-0.007885063525120188,-0.008428209024137087,-0.008898512374200548,-0.009316938605154078,-0.009690473412770018
-0.009466523141973443,-0.009246444060939744,-0.00816903778395238,-0.006401519093007642,-0.004180639840797797,-0.001683861768072269,0.0008002233380357946,0.00298973223547905,0.004764039972395189,0.00629653767184473,0.007497380981409556,0.008338248346187899,0.008881557923864117,0.009129389655216183,0.00910085658245946,0.00896028324823509,0.00868733958933301,0.008160547928953607,0.007507556571838194,0.006764295269280165,0.005950326210813557,0.005075759403345458,0.004304049218334057,0.0036014589999168478,0.0029461791580180155,0.0024525384939045186,0.002133796050788395,0.0018496015798636425,0.0014953575638625564,0.0011813429014927185,0.0009158294486340551,0.0005925368557934844,0.00017067980764953807,-0.00032546872921306345,-0.0008003072511015566,-0.0014031436924216286,-0.0020916462398605884,-0.002768256589958228,-0.0034130148709109625,-0.004007822138661058,-0.004632133493549476,-0.005333724795818118,-0.005961587106841022,-0.006574539179583373,-0.007189810709868546,-0.007790585235388802,-0.008328282050022048,-0.00887780810009649,-0.009374932342734461,-0.009777362034909455
-0.008586453763170063,-0.007950066057242562,-0.006717611558128324,-0.0049634245683671694,-0.002944073917287265,-0.0008059618386312841,0.0013270042398877563,0.003318550974212213,0.005039052582643938,0.006389354653641666,0.0073718113700831376,0.007956351372269936,0.008267349616290902,0.008459305744334218,0.008469914984783873,0.008271806603144052,0.007905493701766934,0.007296654578578323,0.006532741991890539,0.005717006189419082,0.004825098461007609,0.0039013380628023456,0.003031508400763099,0.002247775174980614,0.0015896273195693232,0.0010450823860596935,0.0005575555363077475,0.0002968890399527971,0.00018270320800115253,3.65706509108979e-06,-0.00011139574890817743,-0.0001717112611154204,-0.0002900382192307742,-0.0004847710204604791,-0.0007322188406003712,-0.0010151966543635522,-0.001362596231802825,-0.00173489284972814,-0.0022043019866544683,-0.0027957428389798846,-0.003363074594824911,-0.0038990703165118945,-0.0044570709384633795,-0.005021152994742403,-0.005591682439525331,-0.006179366239026472,-0.006714765375795893,-0.00718211193994983,-0.007577148505269272,-0.00788881561537956
-0.009866146692235725,-0.008946951820278224,-0.007020017317922795,-0.004468234853671467,-0.001777322739585976,0.0006678854782772317,0.002861343063736537,0.00472692888921233,0.006117190423192972,0.007141757873585602,0.007875173706989029,0.00821054613300503,0.008400894843036378,0.008488618319357261,0.008269862895217433,0.007807067410965397,0.007083993696501065,0.006318164861010636,0.0055722259269015625,0.0048994597284207795,0.004378532515452423,0.004004981648590921,0.003897921432026236,0.003964097755176331,0.003911833129817026,0.003821172437658118,0.0037056609633219894,0.003425427136777506,0.002977928493840433,0.002457209997196103,0.0016479909767683867,0.0008917319224182804,0.00024036239107824874,-0.0006074194926264955,-0.0014325097050331963,-0.0021570755616459407,-0.00290448426124802,-0.003590708438977914,-0.004242469456517468,-0.0048337315643677105,-0.005378121980914052,-0.005807531804450615,-0.006301919954365127,-0.00680945435110649,-0.007370491069297792,-0.007839736386834287,-0.008259921596449926,-0.008710564068520698,-0.009173462844542785,-0.009739663592350838
-0.009480653267602264,-0.008873175276211781,-0.007376188435941418,-0.005157789859535597,-0.002556398687909769,-0.00014410859825935774,0.0020240582499287765,0.003979019859756772,0.005649860567780208,0.006755421198817224,0.007543902297041599,0.008056346176970125,0.008300546827631953,0.008393838172904204,0.008342059524276925,0.008084638106225554,0.007525134652470935,0.0067859188512891895,0.005972340334660903,0.005228485135056513,0.004477540072068752,0.00388869549253033,0.003556403949675922,0.0033515837760746746,0.0032814158599737526,0.0031719398178772992,0.003033139229543441,0.0029206850172173392,0.0025738958232095384,0.002095510010389666,0.0016823800343035693,0.0011480957856551375,0.0004563404426182746,-0.0002698913356521238,-0.0010774785254591978,-0.0018457803569175242,-0.0025732027977513547,-0.0033359109509371993,-0.0041119118762406705,-0.004814139867332966,-0.005381565291929795,-0.005925710937149436,-0.006484897460819061,-0.00702722181535267,-0.00748288228437944,-0.007862973879198243,-0.00834833397317517,-0.00882626442700264,-0.009248355948004678,-0.00961511892298266
-0.011333135196150807,-0.010639379283410829,-0.008664939499620815,-0.005595660335178991,-0.0021254903972765834,0.0011978496649833672,0.0040016191049701945,0.006169743127091346,0.007812876783494105,0.008791707266539587,0.009344638261039295,0.009399687375018343,0.00933484115901001,0.00920040836887241,0.008800965451642875,0.008005304252475705,0.007173547867130678,0.0062070555381918725,0.005420010725114717,0.004848098707951823,0.004570037155372933,0.004642166864836936,0.004691512262929301,0.004727799364382679,0.004706312189935983,0.004567595360261323,0.0043509089208483625,0.003922349450639037,0.0032030892704771976,0.0023554962453969223,0.001483675404008944,0.0005562789025034136,-0.00035932552798764007,-0.001326179335677661,-0.0021469009378931613,-0.002828789265781158,-0.0035058037461797955,-0.004167024842262941,-0.004845670126294417,-0.005380863050406475,-0.0058431064548999405,-0.006330755401393087,-0.006797280158491479,-0.0072762326744360535,-0.007778185977946712,-0.008242645460964357,-0.008737259124168778,-0.009339756297680987,-0.009882294590933746,-0.010439471924696771
-0.009014423518563701,-0.00861989885554719,-0.007312003456961075,-0.005293898035929442,-0.002921102621428724,-0.00044113272156803005,0.0019125760449835733,0.003862997193407053,0.0053943094814390205,0.00660788675097732,0.007416411090121348,0.007970377699928996,0.008220519842565869,0.00818550567751699,0.008070650441571186,0.007778066050401464,0.0072951398718801115,0.006633055555173646,0.005880286660430949,0.005055157021457966,0.0042990185863041675,0.0037358322472205697,0.0032003991540656227,0.002711060920628064,0.002406210151519197,0.0022979051581552344,0.002201688292134046,0.0020072045216549084,0.0017942875574730808,0.0015910155091335405,0.0012485525833338268,0.0007787217279074831,0.0002791249929724556,-0.00031723477140340475,-0.000962265893618237,-0.0016529788010086561,-0.0022924678603992547,-0.0029709811517650083,-0.0035970158606763052,-0.004174707420844992,-0.004662311359696552,-0.00515536367351653,-0.005775130043474519,-0.006313993561231158,-0.0067269433966975775,-0.007205279991376924,-0.007683488663088378,-0.008090077478674143,-0.008515776968498137,-0.008931527350771263
-0.009946797831208913,-0.009811614526915419,-0.008799036759003299,-0.006746890616159055,-0.0040369343728211965,-0.0012826979329024202,0.0013376383538944829,0.0036914251897527204,0.005658456783073469,0.007009805832172305,0.007807987818594711,0.008379951224471605,0.008722958885933225,0.008815597959491658,0.008696540455316246,0.008350920269740358,0.007826388669790206,0.007188881011953841,0.006474245580825512,0.0057666064476048105,0.005014157826665735,0.004459172418750309,0.00412289404649228,0.0039380436697119955,0.0038374005112121064,0.0037397747771334435,0.003512249676370465,0.0032067091812774777,0.002906757898174553,0.0025654748527112474,0.0021222175379681683,0.0014785395726067973,0.0007326313687000321,-2.8144619997852124e-05,-0.0007783147770948946,-0.001620307016387299,-0.0024742022299377247,-0.003204534150062669,-0.003791985322166814,-0.004412598247077417,-0.004995108843739732,-0.005497711477653887,-0.006037943589717838,-0.006477809343515447,-0.006907357759686791,-0.007381756914401699,-0.0078393888932892,-0.008297482010310773,-0.008807364066944075,-0.009274679446888732
-0.008382788286267715,-0.008218489828211557,-0.007534996914904602,-0.006269172174762889,-0.004327170305460711,-0.002246731346056271,-0.00018607169968525765,0.001821406504948152,0.0035037772387557266,0.004894782856037109,0.006010012058656478,0.006739137808029258,0.007251039147957713,0.007613758313509262,0.007797869849235972,0.0077811788905984,0.007589693016556968,0.007208710046255985,0.0066847379553470684,0.005992957556580115,0.0051540709619365,0.004365511674210908,0.0035919834149280815,0.0029291394075325835,0.002434699226809884,0.001961132359029468,0.0016195099898345868,0.0014758171732283446,0.0013223862907423176,0.0011185993184073025,0.0009445261388927917,0.0007659154369558997,0.0004641629603987834,2.2422705161623344e-05,-0.00044433648854332123,-0.0008589113926950331,-0.0013425674287210747,-0.001953490727716441,-0.002557376908493874,-0.0031458791234582513,-0.003627549582944591,-0.004186722484322487,-0.004782327889663177,-0.005330748295756191,-0.005974463871444527,-0.0065320014364415825,-0.006907245044170306,-0.007244536916591829,-0.007627891244073215,-0.008092178527090465
-0.008854320380037129,-0.008479359768336981,-0.0073832992175830265,-0.005624440011112588,-0.003388565394549393,-0.0011570749215583356,0.0009621817522252853,0.0028667254528383455,0.004465937435213827,0.005658445193506087,0.0065712506850842305,0.0071921944785377665,0.007540177488763812,0.007774740087888585,0.00788727090777782,0.007741211173145194,0.007292870423931746,0.006723934800289995,0.0060113826313013706,0.005218351736095285,0.004514936437928485,0.0038875947379186787,0.003378095748539882,0.0030850834457810845,0.0029572275887325473,0.0028151622301136356,0.0026819954511825166,0.002528865359488407,0.002350210160345662,0.0020856635919974313,0.0016680702341147935,0.0011850371807762552,0.0006653703529725732,3.737418454581334e-05,-0.0006627852340862434,-0.0013789818224450676,-0.0021266031802797515,-0.0028374204053339615,-0.00342464703104213,-0.003933150056493606,-0.0045424320348612735,-0.005133552732792586,-0.005568230359130261,-0.005942884346979972,-0.006343206073401411,-0.006794695541759978,-0.007204324181395591,-0.0076254588214856485,-0.008052369237808906,-0.008456103825367788
-0.009098177260975908,-0.008768235594538982,-0.007732938095039321,-0.006092765609021923,-0.004014718045192021,-0.00183418200572391,0.0003336637277080192,0.00235556261396087,0.0040404182052902375,0.005417644346237709,0.006616603744980473,0.007458152958910234,0.00788677086879812,0.008167681003602342,0.00829985893439106,0.008329018601333083,0.008235175957651606,0.007865755934504283,0.007268270966946498,0.006589678662939392,0.0058989556827339605,0.005126549723017106,0.004373511586868658,0.003788007923208272,0.0033159928674602636,0.002878051197548217,0.0026063981398747817,0.002507448435938826,0.002315881075517612,0.002056993431288174,0.0017831129931276263,0.001427994524373286,0.0009829464461797212,0.0003969195928327492,-0.00032537873549909243,-0.0009980159876190123,-0.0016100950486042439,-0.0022260522959520455,-0.0028872534563800165,-0.003586537430431661,-0.004245829596588195,-0.004839387374355989,-0.005393729101650177,-0.005885492452962983,-0.006408532296445882,-0.006945956054974418,-0.007469813509063873,-0.00792955621202914,-0.00839229693987762,-0.00887252600499855
-0.00795992284361895,-0.007949768689674423,-0.007257807525205398,-0.005933547086937043,-0.004094476913308698,-0.002019045587456856,9.609563763481774e-05,0.002087348541068423,0.003727580415006639,0.005069482312393167,0.006204173855955325,0.007021001813164812,0.007491611562846963,0.007694504987754455,0.007803025693821693,0.007788677774938815,0.007595234696691139,0.0072599784565810475,0.006785812501307588,0.006037980540970547,0.005200101806679324,0.004388940477957855,0.0035714773914143935,0.0028654295530545176,0.0023268513563572332,0.001987427875285153,0.0017662108341957034,0.0015762737302216397,0.0013434814783114442,0.0011233185384334425,0.0010326659047935124,0.0007838592993797097,0.00030849124465386367,-0.0001864599899961631,-0.0006021080100576929,-0.0010515203446346672,-0.0016019733510154344,-0.00214552083775663,-0.002807857195804746,-0.0035239619645928547,-0.004108295537484141,-0.004610999572226913,-0.005101868587863165,-0.005618921827552484,-0.0061576419940054,-0.00669003676349967,-0.007171795110932042,-0.00763026228669194,-0.00805670906318931,-0.008432629882903263
-0.005228719209324265,-0.004961789686996683,-0.004407286150246308,-0.003565015133510018,-0.002430923113619333,-0.0011598629624906868,0.00012464051421923964,0.0012936215233745492,0.002263846470213443,0.003041590026539662,0.003698833630127468,0.0041544221916292624,0.0044056423392092705,0.004527387526698549,0.004579192401168823,0.004568571374141869,0.0044533115914937894,0.004204723467780652,0.003871112662296256,0.0033747914148766107,0.0028970776540585587,0.0024476343998005557,0.0019891960561150717,0.0015869154401922773,0.0012708778627747478,0.0011060521550284056,0.0010619291668084627,0.0009548127657223286,0.0008155187402364687,0.0007520098873188141,0.0006278974537691485,0.00046519583944567753,0.00036879376248192343,0.0001952277893688384,-0.00010929742507857154,-0.0003915136213047192,-0.0006756619962147072,-0.0009990242505991858,-0.0013120146883128167,-0.0017011341679057082,-0.002157775727352493,-0.0025303845325336752,-0.0029032141561390907,-0.0032935749436547868,-0.0036020630649228626,-0.003963698044469621,-0.004393992145541734,-0.004744599273240749,-0.005057192700126951,-0.005351941512614244
-0.00793354886573728,-0.00745728383713255,-0.00640933636558021,-0.004853236848278112,-0.002968391822085225,-0.0009936360617306707,0.000942265471173092,0.002664099487454063,0.004156363638068907,0.005355995162299981,0.006206836167777404,0.006800523336906131,0.007101435090709111,0.0072008635275976505,0.0072223117047115135,0.007138711066964304,0.006937357989633216,0.006513310444603675,0.00591896084889858,0.005244016584947528,0.004542161296614166,0.0038353726617400326,0.0030841773813570037,0.0025962200850016045,0.0022553720199907502,0.0018332052763497194,0.0016744378123073461,0.001621185472852663,0.0014820974899556864,0.0013447480823025222,0.001121943855774521,0.0008111959851573201,0.0004082405455958116,-8.099902577195118e-05,-0.0005646532436317826,-0.0010129889262102095,-0.0015071192236231535,-0.0020699673619957747,-0.0026612270534436175,-0.0032683971493682826,-0.003848205153089075,-0.004384125904882366,-0.004916242709418681,-0.005521499438614421,-0.006022184317301117,-0.006463435486535205,-0.006902388281272785,-0.007289173776169322,-0.007679695048477442,-0.008091774143428045
-0.008624469071478317,-0.008603669392673353,-0.008104096186924254,-0.006812190730897273,-0.004694332030745412,-0.002383325663931787,-0.00011343742079336119,0.0019329795504757312,0.0037451656598964625,0.005147491175524953,0.006135965079595569,0.006904057565194751,0.0073590028582896415,0.007551537307087464,0.007586556665737449,0.00744249260360445,0.007169441565136071,0.0066781764043829005,0.006089105698663688,0.005422250610113773,0.004756099979328241,0.004173302098992662,0.003625314248761118,0.0032926123493110786,0.0030925368260236092,0.002886860807067413,0.002737793354465763,0.0026749375518325667,0.002636752672460708,0.0024353386001809228,0.002077577362968369,0.0016178658621315925,0.0011433928226948673,0.0006835356683907112,0.00016707053071287164,-0.0005951591249513728,-0.0013939065500645214,-0.0020837569133147975,-0.002768793707210912,-0.003329869222489564,-0.0037636647506959025,-0.004201180835456865,-0.004745989886493804,-0.0052874982009491756,-0.0057741054103139415,-0.006128284106091008,-0.006492228737045409,-0.006937768884017505,-0.0073905592882954315,-0.007786674748559371
-0.008354021819309243,-0.008248556081725499,-0.007363039909683368,-0.005737300840717109,-0.0035472349056254113,-0.0013125728854963168,0.0008399595184821577,0.0027778980355763947,0.004456272080934842,0.005786090409822412,0.0067143503201617565,0.007351671726861273,0.007702017614130086,0.007819585356353853,0.007877834974202268,0.00782870460878181,0.007594329869225861,0.007106504882319938,0.006579602171444519,0.0060088102869785345,0.005168623193315013,0.004312664981584187,0.00362385167731853,0.003018136068658426,0.002451628590204704,0.001993221743350611,0.0017832699263494285,0.001635128011539527,0.0014973264391516365,0.0013437402553442377,0.0011437637989657335,0.0009926194807194802,0.0007194488388323384,0.00017647124240053192,-0.00040270593218828956,-0.0008978054735147156,-0.0014830294072169228,-0.002057534507362366,-0.00264809537630676,-0.003284232850138746,-0.003957865358553043,-0.00452307234388909,-0.005006674513471399,-0.00550763887404655,-0.006099423407156614,-0.006705214414010935,-0.0072534905916439504,-0.007730448380640127,-0.008151440455791735,-0.00851898881067081
-0.008876956177508555,-0.008634497632061809,-0.007650742053065026,-0.005939707646556726,-0.0036456820839327795,-0.0013213402900547355,0.0008646664232210827,0.002857197749954153,0.004545178105481137,0.0058074455972829675,0.00667033467859436,0.007272125925370405,0.007607579754190185,0.00770940002715325,0.00767354677750602,0.007534276711778232,0.007234210838598533,0.006663526466963756,0.005998220716820379,0.005326384388254991,0.0046249117127409615,0.0038649288046242463,0.003287529576757131,0.0028478583744919093,0.002497308757527596,0.002328077537438479,0.0022928418724156466,0.0022500983740296313,0.0021781134471335296,0.0019436939873641878,0.001655088442699359,0.0012926502368751527,0.0007998741712593589,0.00025798471148789356,-0.00035309101868628373,-0.0010589601173308782,-0.0017541472244241923,-0.002367422836950184,-0.0030336374747558775,-0.0036511936756920605,-0.004211327802615441,-0.004757780577603896,-0.005223804395572479,-0.005623705218084682,-0.006105104694686114,-0.0066281980814499,-0.00689781003000568,-0.007395656808691607,-0.007917299554353793,-0.008181326367045898
-0.008660788365301672,-0.008382765031151903,-0.007370976496495442,-0.005688046432868102,-0.00352384474458879,-0.001270419919469667,0.0008383421077776558,0.0027547567625493146,0.0043545706547436745,0.005570736127454248,0.006549611413988875,0.00729403999629175,0.00770261176569659,0.007848090770668652,0.007877118711121685,0.007751966085513773,0.007432012674943857,0.006911261016015646,0.006270160472065823,0.005618238875293491,0.00487701306110084,0.004053155817719358,0.0032466997216794202,0.0024719606451168957,0.001852123460116294,0.0014833038592226586,0.001302705352226166,0.001179281789093109,0.0010224581091191813,0.0008873624980995804,0.0007444180352652865,0.0005821466077124489,0.0003759429117892745,9.872767728594013e-05,-0.0003481710000655454,-0.0009510129038840298,-0.0014822410441107708,-0.0019514792241095737,-0.002506254213802714,-0.003179504945984457,-0.003863031011577604,-0.004420011987126822,-0.004976612532227639,-0.005544431622216302,-0.006064297115728103,-0.006595637539009815,-0.007096269654589944,-0.007579855146562074,-0.00804086296419007,-0.008463451002698503
-0.008882478168676705,-0.00890722266652653,-0.008340623750465402,-0.007111315258746535,-0.005150717157502476,-0.002852691506439648,-0.0004886236600065006,0.0017698046779446887,0.00368951560858323,0.005277596226861743,0.006585183792930937,0.007530132510688255,0.00805186279479214,0.008246165612781553,0.00836376368385018,0.008311310106422845,0.008086332926259958,0.007743424356191842,0.007281247081221826,0.006563318870363619,0.005737187705157281,0.0049180525628730225,0.004059588631827252,0.0032348525990872332,0.002530643922369325,0.00205839858514038,0.0017677774417491632,0.0015121701052876007,0.0013043159827807792,0.0012574915051929332,0.0011711975882172981,0.0009370127383381083,0.0006254735553605837,0.0002718779841243334,-0.00020904723610329451,-0.0007095360840404549,-0.001186497456693673,-0.001841444529972784,-0.0025665426130217052,-0.0031299867890571937,-0.0036710250516315403,-0.004333538827737627,-0.00494751876456201,-0.00547497852081017,-0.006078006094533801,-0.006666217669550638,-0.0071613595933085914,-0.007512748034943159,-0.007917082006114094,-0.008499541843907958
-0.007486849687083085,-0.007310526492473939,-0.006529027305706483,-0.005173373369854188,-0.0033620902077315484,-0.001416235431510992,0.00043665556647051734,0.0021631535646466603,0.0037301228665779147,0.00507496917227498,0.006120589130750216,0.006871174133172599,0.007374201067143556,0.007608820571956947,0.007598766897572331,0.007477899582964159,0.007230762436826496,0.006822353591285755,0.0062901810322901,0.00558025559889765,0.004680758100007278,0.0037784040848118754,0.002960433582103506,0.0022300642379736676,0.0015906449585223771,0.0010760241966676594,0.000638603288832436,0.0003603723079815716,0.0001982783208658524,6.725175516513202e-05,-1.699327999231748e-05,-8.259819624540695e-05,-0.00015905779934387908,-0.0003881783586379975,-0.0006951150583237633,-0.0009748181560682859,-0.0012867419716755155,-0.0016569172345285658,-0.0020746570799622306,-0.0025986778998842402,-0.0031424352522869056,-0.0036813687496325066,-0.00419525313086106,-0.004716465332887623,-0.005311922927777394,-0.005886915676905753,-0.006374792536582294,-0.0067577551639718654,-0.0071284828060293815,-0.007508572049700662
-0.00826602165830886,-0.008206161350433743,-0.007284401144251535,-0.005619641687888925,-0.003467618055224357,-0.0012186074146739916,0.0009587350774413351,0.002893334957515633,0.004368964515945913,0.005608188851341127,0.006643977920702032,0.007318423380644034,0.007684295806161121,0.007871865966997167,0.007845153297225564,0.00756291639680217,0.007131366093783685,0.006577604874078251,0.005886405299059133,0.0050980301804605145,0.004319133743260988,0.003581934380734311,0.00293817373835102,0.002512167690528032,0.0022277700036836966,0.0019599145791472463,0.0017930693346229617,0.0016789549799358884,0.0015556601015165518,0.0014298748634299016,0.0012073381076424337,0.0008919094380451354,0.0005387539463404752,9.045956335243322e-05,-0.00046361022439838327,-0.0011011628491782218,-0.001721296154584605,-0.002297794652843618,-0.002845178928061227,-0.0033887433355753744,-0.0039462012141137336,-0.0044755838798629715,-0.0049890010646619935,-0.005505852540609626,-0.006060753004199349,-0.00656105995223698,-0.00695952115300143,-0.0074037518871371754,-0.007786774601547186,-0.008022851678711869
-0.009210352439463677,-0.008943685980310286,-0.007888408163640713,-0.006111488631942313,-0.0037768066951434226,-0.0014195649812000543,0.0008170574488378003,0.0028705825158763174,0.004641626010196823,0.006019761908874238,0.007054200414692668,0.007759081999908692,0.008174407661550033,0.008355023276306934,0.008358211823009706,0.00818558571013286,0.00790618588215149,0.00747443068269266,0.006816035265479752,0.006099944152824283,0.005285570946022159,0.0043958729346448965,0.0036259992827701415,0.0029698329832505495,0.0023630682963637225,0.0018801497502504854,0.0016285333026155124,0.001466327020296486,0.0013039784143079082,0.0011603120507057063,0.0010298126904273019,0.0008247992435415213,0.0004728814306847458,2.448275721288915e-05,-0.0004709601240542658,-0.0009980245549407799,-0.0016351381424076885,-0.0022489914367047653,-0.0027887445536968203,-0.0033879494453101775,-0.004051132727643551,-0.004625101295207566,-0.005133010612398284,-0.005715010516660375,-0.006401372578071773,-0.007014434774627684,-0.007451358472050841,-0.0079721347326318,-0.008448586213390672,-0.008769850477253613
-0.00870039308560389,-0.008244934907339097,-0.0069201768304210515,-0.004964650302806833,-0.0027501849253154602,-0.0004113495607494893,0.0018344013787801132,0.003776630784518982,0.00533601429729669,0.006566680438824961,0.007465893550799113,0.008012764945804099,0.008310024784176251,0.008417853077391893,0.008355539057514958,0.008184082643761508,0.007841382571174324,0.007310048382784993,0.0066130462320457386,0.005764983471225844,0.0049258061366642646,0.00411377128141924,0.0034649232118396625,0.0028621684701669293,0.002383425210455138,0.002102004318344757,0.001901274617544772,0.0017188975152519447,0.0015749117528746136,0.001357857445153032,0.0011577985626351035,0.0009184135995551281,0.0004183244878085953,-0.00014970075239780024,-0.0006347051777310519,-0.001198774483602831,-0.001919839959209447,-0.0026179333662969466,-0.0031488781828683857,-0.003780891126367787,-0.004443640537071841,-0.005001702304513868,-0.005525309892249097,-0.006173232454902544,-0.006802420273519345,-0.007283736422078568,-0.007717231864198633,-0.008208805143644677,-0.008651290872505749,-0.008996498750037314
-0.008920393018069359,-0.008489465056480416,-0.007410412029664718,-0.005686704305383876,-0.0033737261033299306,-0.0009832498439339375,0.0012054141785138486,0.003076217018850367,0.004610175215391406,0.005825054232565033,0.006703853886064659,0.007279821075895015,0.007613283748918557,0.007720339753926748,0.007639699660918022,0.007432904365830237,0.0070902338537026655,0.006577337875769783,0.005904256247768673,0.005160330144881348,0.004284638387272148,0.003435116960438208,0.002746031702451471,0.0022647808609609285,0.0018846710035886054,0.001692283650347295,0.0015978280047586257,0.001482165824171805,0.0014461130811095253,0.0012788132763478113,0.0010476699772039104,0.0008203292746844565,0.00037019292996259135,-0.00014034712191233215,-0.0005841874613225986,-0.0011428516601837866,-0.0017448410498944814,-0.0023040414464209815,-0.002891523756232308,-0.0034770148059856767,-0.004015793386540943,-0.004462086045066285,-0.005004070602150345,-0.0056926209956197115,-0.006189805661741908,-0.006569186575632091,-0.006974401144784366,-0.007382181949177494,-0.007775008246285281,-0.00814585841295061
-0.008957326086701767,-0.008857089605285555,-0.008093798848229927,-0.00657150205541239,-0.004317183385426428,-0.001918040905563536,0.0004326084943712157,0.002572947163711977,0.00433794769749262,0.0057913635545359015,0.006924792545489902,0.0077427580954174775,0.008164491625009483,0.008299435384858571,0.008279784347891945,0.008189476323887194,0.007977487139768183,0.007559179153894203,0.00689479324147563,0.0060870464381846704,0.005239627178517348,0.004438729076022506,0.0038728234412372213,0.003408295532071214,0.0028868193297972894,0.002543582428945293,0.0024133622626048546,0.002298138290735909,0.002165012213763702,0.0019634213896265467,0.0017228124932797413,0.0014675089557040178,0.0010393565678466247,0.00041192109752060074,-0.00030044018365229093,-0.0009293591476643293,-0.001533046571439482,-0.002172935342211016,-0.0028327632722639096,-0.0035210874424981948,-0.0041114709644192605,-0.004655573986437531,-0.005267607887208412,-0.005708240983468129,-0.006174723572097536,-0.0066725773224363865,-0.007069081091358231,-0.007535036963692271,-0.008012382710727281,-0.008448534986893056
-0.00887734085907141,-0.00888499719891298,-0.008100565972619857,-0.0065207277914651925,-0.004257831439249529,-0.0018672094518718055,0.00040527102236792974,0.0024475984105479577,0.004264813939656196,0.005741630138497482,0.006799641803085232,0.007532613903280247,0.008010286508238025,0.008244904606841725,0.008364056754854363,0.008354855650932828,0.008096552245868457,0.007578442381630864,0.006923351566846584,0.006256582836069908,0.0054457618236480555,0.004676046595512778,0.004011655179346654,0.0033772777719790893,0.0028940719486941027,0.0026514861884843377,0.0024476473196328296,0.00220562620867973,0.002030381777647054,0.001841277950220075,0.001611116076083081,0.0012833304096791425,0.0008899737877269756,0.0003924354865379877,-0.000224837360162789,-0.0008890229316329858,-0.0015491156670480015,-0.0022146983422842736,-0.0028198602062508072,-0.003458656863874339,-0.004165734765006752,-0.004826019164807869,-0.005492455395824332,-0.00597791156215442,-0.006435618142725319,-0.006972216226415049,-0.007513140239784186,-0.007999558326766786,-0.0083885672876106,-0.008668290234771678
-0.008172998741798792,-0.007682821780582566,-0.006381357104572601,-0.004449211769436158,-0.0022917102038305663,-0.00016574514466876443,0.001854622654241713,0.00373566235825499,0.005256123816168186,0.006376002498391704,0.007196140582813925,0.007775430351009712,0.008040406825613784,0.008036784203153522,0.007975457140055035,0.007797329715734329,0.007442063528055554,0.006948347782488098,0.0063058767496454475,0.005500345272461227,0.004651004032756048,0.0038690890631299896,0.003172228883180496,0.0025676882776108387,0.0021003796207400894,0.0018343761495349994,0.0016487553303536333,0.0014605919477879298,0.0012475289177712081,0.0010528856271987818,0.0009014347195200999,0.0005739218116832947,0.00014840560326842607,-0.00028718701113308946,-0.000749694660179025,-0.0012599963237048277,-0.0018467575865259197,-0.002466121447911184,-0.0030323954162594113,-0.0035795803725934597,-0.004136507445842128,-0.0047456468724491555,-0.005345994614413731,-0.005911362285439922,-0.006453493981901821,-0.006909567893073755,-0.0072936399076355225,-0.007751381527502165,-0.008153922390142431,-0.008436567125988448
-0.008212329460856163,-0.007948627480006087,-0.007022827545428576,-0.005474558737351733,-0.0034317907632961816,-0.0012983486006843984,0.000788484932159408,0.0027171210913148913,0.0042966249483904284,0.0055729674407687104,0.006569776186403702,0.0071382607033527055,0.007469208095549615,0.0077075490053055565,0.0077590366689447585,0.0076199435684042366,0.007297796202801329,0.006757590659228899,0.006078610425146017,0.005353464834463258,0.004562108737894832,0.003777826379014917,0.003086844839020731,0.0024409455918646124,0.001972991719788837,0.0016548014828801879,0.00144171124136942,0.0013115840323434872,0.0011035597919529826,0.0008750886243406633,0.0006572692965470865,0.00040198162831793873,8.077631029107533e-05,-0.00027910045166707826,-0.0006955065683611748,-0.001193141899638032,-0.0017125854556708162,-0.002236409680625993,-0.0027916498509389584,-0.0033685857936753896,-0.003908252989797568,-0.004497512157956587,-0.005041076604566025,-0.005498646657936916,-0.006050510605083379,-0.006513934664627313,-0.006862783328243953,-0.007371314701741357,-0.007872881638217316,-0.008287139271146974
-0.009105363249229254,-0.009124549541254726,-0.008255924489707854,-0.006500724791607816,-0.0040956280691584294,-0.0015489610109089222,0.0010208054449181417,0.0033096988969925846,0.005123381614718177,0.006523450530366059,0.0075020329083251985,0.008059273729491322,0.008415028797635775,0.008528652179420079,0.008485860198886854,0.008351005281753721,0.007980608051571407,0.007445634145867159,0.006703831730968404,0.005754398057982034,0.005027486043886875,0.004398149798883484,0.0038002765553460023,0.0033810868699539654,0.0030953510330781766,0.00287586336175823,0.002783692004009237,0.0026550733022024553,0.002473089818908612,0.002244014807092407,0.0017772497216431116,0.0012042245274497816,0.0006429325137635738,7.431708340967961e-05,-0.0007914133691252736,-0.0015451555878921112,-0.0022982156532671254,-0.00297254236957975,-0.0035851481887996593,-0.00425220336775745,-0.004888875713501536,-0.0053987413077927066,-0.005804921751232524,-0.0063347348407151475,-0.006867626330321448,-0.0073115606749701205,-0.007756485883752257,-0.008153554437148332,-0.00850610451617452,-0.008852118356919628
-0.008501406639765697,-0.008148578347494724,-0.006930908394084601,-0.005035387849137742,-0.0028276036651179322,-0.0005293778278251299,0.0016737006306269866,0.003649464821014203,0.005303870309301996,0.0065809748193482,0.007466864403754559,0.007974938930529364,0.008217091073330983,0.008365139633076599,0.008313166143972574,0.008071695859030755,0.007688444777826604,0.007158563813594435,0.006490047613245422,0.005685674350533687,0.0048147401634385184,0.003958870762152814,0.003191000004927693,0.002516007681768038,0.002107826754155231,0.0017811209711717738,0.0014822613294216234,0.001344287489844525,0.0012025508514776683,0.001010123579650589,0.0007775976265995722,0.0005194100809966574,0.00010788328178134946,-0.00041204996646770925,-0.00091405494336256,-0.0014373641545023326,-0.002071326021993043,-0.0027033802390609304,-0.0032741793407229255,-0.0039048864471103394,-0.004548455472581381,-0.005152819321547857,-0.005695567605055396,-0.006216894125848344,-0.0067856728278893885,-0.0072575080450280735,-0.007647574482455277,-0.008169649436835263,-0.008694504095226275,-0.009136018121374106
-0.008509575253940813,-0.007927256481556845,-0.006312471039175443,-0.003975692462065941,-0.0013565258431693847,0.0011188306343569805,0.0032441732080635693,0.004953365460758872,0.006245535053796776,0.0070426173045806326,0.007610705339765063,0.007973948487567733,0.007988129609941254,0.007797141116881862,0.00745284247471336,0.006956718188233999,0.006253264419051471,0.00545158546697391,0.004579923495385431,0.0038501437313929986,0.0031616551527973145,0.002598231877802117,0.0022762207487568406,0.0021695714314601024,0.0020278231500576063,0.001874334239251589,0.0017797631993643152,0.0017176584893414798,0.0015278461794030725,0.0012001738693233276,0.0008696540122382714,0.00038211532841124035,-0.00019412436415359874,-0.000764810858044996,-0.0013572625723962562,-0.0020172399580251723,-0.002633542612034244,-0.003241255641462888,-0.003945014176838508,-0.004475713663931194,-0.004943647648627828,-0.005409820287651339,-0.005862319791560472,-0.0063291611587335435,-0.0067570509802427165,-0.007189078412020193,-0.0076494174390575225,-0.00803616684868473,-0.008362943139781582,-0.008659237743874086
-0.009987055039974066,-0.009772766441061983,-0.008686496637037635,-0.006515946964136644,-0.0037403148804101283,-0.0009943156505235213,0.0016233611938605687,0.003769584120430155,0.005399695221120974,0.00648508246244128,0.007247021979333139,0.007657652821831722,0.007892132682991639,0.007891756628204941,0.007642275438353924,0.007259712420175646,0.006662818026608598,0.0059249311852491255,0.005086958609769363,0.004293196890367592,0.0038777658513836385,0.0036442639171545416,0.0035243921924936784,0.00348554098109369,0.003579645405664558,0.003580072819061682,0.0035579761601812966,0.0032260253881466906,0.0028034030029738016,0.0023046607265025765,0.001747015082002715,0.0012152894169919475,0.00038199952245855634,-0.0004061869885530731,-0.0011161392369142288,-0.0017412204108353615,-0.002310524356264726,-0.002975063572829484,-0.0036590081499866486,-0.004198180128472389,-0.004574770260920435,-0.005091194829578806,-0.005521894682349759,-0.005922129540977941,-0.006366822379849005,-0.006748485028977756,-0.0071424314259120126,-0.007623150480666763,-0.008139104292779517,-0.008670437471215132
-0.008776841721391803,-0.008459202385345532,-0.007579607078586244,-0.006105859477187233,-0.003994252586601253,-0.0017665701194375203,0.0003428593470308234,0.0023151770654496,0.004039729024688053,0.005428782501910343,0.006520751400108667,0.007372534314921444,0.007908542842580338,0.008211732684504142,0.008326916503139313,0.008328794652054649,0.008228203037076685,0.00791095837385015,0.007371324314263124,0.006704760373141775,0.0059359211537522655,0.005124990125918014,0.004305358084318335,0.003602391102520912,0.0030186594843770037,0.0024366848895047218,0.0018994023495784856,0.00153197891276774,0.0013172415881683782,0.0011211636384130435,0.0008297737453868416,0.0005405809987991269,0.00023431306585648592,-0.00016997954004301736,-0.0004792496558233157,-0.0007605999346735802,-0.001200744871323872,-0.0017408198951932904,-0.0023069152464075,-0.0029211820342956965,-0.0035598851842561486,-0.0041093466213670505,-0.00465127367556162,-0.005288066539898058,-0.005831124798558847,-0.006334174178181906,-0.006927209396852463,-0.007451197085054426,-0.007928882861731953,-0.008384332866969603
-0.007084698441733321,-0.0071049146733890975,-0.006343520457018223,-0.004940603234137132,-0.003174709313026857,-0.0013195418670079208,0.00040326937716948596,0.0018590521128571576,0.003158061513132034,0.004270921908790399,0.0050886655823118195,0.005692701546333304,0.006122907741991045,0.006293902485504918,0.006204314026325079,0.006160322266944844,0.006077350693165998,0.005769508241773702,0.005225775164711896,0.004733630403484133,0.004136787862033298,0.0033859833803679324,0.0026999251337592994,0.0021357286699790357,0.00163833393866934,0.0012927914912830875,0.0010755776322095437,0.0009934724490112427,0.0009396201072906688,0.000873111398966721,0.0007781944052884555,0.0005282957309063453,0.0002728963796969008,-1.2784290162117339e-05,-0.0003620168184245069,-0.0007588050043941157,-0.0012632010331577943,-0.0017065420251368424,-0.002111322993424689,-0.002600311735054058,-0.0031685921454079197,-0.003582323621120933,-0.003945866106720756,-0.004392482838682228,-0.004895999141763481,-0.005325288766946793,-0.005671418835543822,-0.006185320522741483,-0.006662389668105982,-0.0069658867198723355
-0.007419459721712367,-0.007131706178058848,-0.0061167846658469185,-0.004475630924783539,-0.0024807867540101902,-0.0005875034444821997,0.0011199423862782896,0.002654831859558122,0.004054737552743592,0.005188545418311708,0.005980347723458605,0.006520397501333285,0.006744004351243518,0.006835367089109229,0.0068529424069306,0.0065365832694628595,0.006118271509278438,0.005661899908301719,0.005119733680575458,0.004437477342778613,0.0036607603249084546,0.002902788819199162,0.0021950852324341703,0.001668582198583248,0.0013361691155099875,0.0011306668948659622,0.0009305371640886467,0.0008210661608396289,0.0008529896974333404,0.0008275969625586155,0.0007304233375936064,0.0005316989952968949,0.00016237185479250245,-0.00022048154800418824,-0.0006141614106487474,-0.0010281468381968467,-0.0014156319555404622,-0.001891845496927881,-0.0025184778885313716,-0.003108127869588259,-0.0036263355518474237,-0.004123589865928463,-0.004585047108792854,-0.005029891433801772,-0.005480299369063637,-0.00597059082849813,-0.006459432935427366,-0.0069546650495105585,-0.0073804920903582745,-0.007697380972026847
-0.00873196422720609,-0.00834892292928733,-0.007071973640906763,-0.004991983518239043,-0.0024934025008408454,-0.00013458057372890382,0.0019415140534801373,0.0036959580460545617,0.005146194201307388,0.006168959082580624,0.006797785884202674,0.007112751809310688,0.00724204705032083,0.007248929079744831,0.007081855918946158,0.006702092712979092,0.006042907316801423,0.0053894314620344256,0.004611413424659128,0.003811691464947939,0.00308356673259572,0.0024096389880550267,0.0018795026579559058,0.00157024705366148,0.0014136883807555377,0.001381025850479276,0.001451245156739797,0.0015074354891311873,0.001406640308959849,0.0012229646049441868,0.0008855141198001177,0.0005323361378382659,0.00019995299297549264,-0.0003326474120045474,-0.0008811396099970295,-0.0014705259688045037,-0.002097284076269222,-0.0026499124306962156,-0.0031989097189616816,-0.003777428297118725,-0.0042941128990272625,-0.004688098476008352,-0.005079395028365337,-0.005622281205837405,-0.006047270300792408,-0.006531928730521092,-0.007031751806884266,-0.007489318639361343,-0.007868867005214586,-0.008156726646506152
-0.008440303264562427,-0.008015685653739781,-0.006643300129103303,-0.004526736868744582,-0.0019718359039158453,0.0005209575915057655,0.002710822000626181,0.0045798106712336825,0.006015966207984263,0.007110372227393517,0.007801019518088704,0.008073394342645332,0.008143541538758918,0.00794789601444266,0.007659210147491928,0.0072530448914893885,0.0066977293640915385,0.005980151516632871,0.0050415497220071825,0.004157365009222376,0.0034478889728288913,0.00280016698282028,0.0022693023497132076,0.001978463958529001,0.0018319193203944594,0.0018055930172926234,0.0017539346847167266,0.0016689449936905458,0.001488719393182748,0.0012306914786558525,0.0009419160607792883,0.0005452624099460769,7.453683610480568e-05,-0.0005980237613181709,-0.0012568282846615773,-0.0018315098595856805,-0.002413500304847068,-0.0030548949766840516,-0.0037776807922798895,-0.004361082124828057,-0.00488885614418371,-0.005397117177657919,-0.005876977860056126,-0.006312233950954507,-0.006714684974069611,-0.007150091711379286,-0.007604419560760797,-0.00793583869018395,-0.008229359943161449,-0.008571450059115535
-0.009098016647988006,-0.00879092292070783,-0.007583429941301768,-0.005476517593401435,-0.0027712786054133937,-0.00013592094760232233,0.00215233047365268,0.00413178867092142,0.005756227094867503,0.006907993714532036,0.007645915920160131,0.008082755083022109,0.008199178125577649,0.008087110335789058,0.007794776962594556,0.007447719411694662,0.006951583127201545,0.006311116316699654,0.005589081569251871,0.004818153959488181,0.00405166517045943,0.0033893196154416018,0.002935505239107305,0.002742715362852524,0.0027317223245643227,0.002724656865156897,0.0027789051391254346,0.0026498578058305536,0.002351266184265363,0.0021203785932205794,0.001768145775672107,0.0012735479941539656,0.0007011874248313722,7.172127865111241e-05,-0.0006267074840513556,-0.0014260593007196475,-0.0021315402327159246,-0.0027414768696232463,-0.0032838355883359634,-0.003818727337603528,-0.004379507613236238,-0.004844487596095,-0.005295884992808776,-0.005799587266365906,-0.006247883588071562,-0.006616504801377241,-0.007052917167089105,-0.007483116576704688,-0.007875205219416245,-0.008250391713858387
-0.009292222368291672,-0.009113160591750923,-0.008093861341359825,-0.006151413390696157,-0.003516028225164359,-0.0008424662295983118,0.0016475462200638755,0.0038105630946661576,0.005554716425152859,0.006930616489492934,0.007785585148695033,0.008258013231724844,0.008452918305783699,0.008407079155991143,0.008157586190269848,0.00784845430503469,0.007353957185888447,0.006698604646185682,0.005863184963069885,0.005038663149416951,0.00430699676171264,0.00361873445901843,0.0032125409771873296,0.0030230377563366414,0.002930637145018126,0.002845312772207178,0.0027552651856115433,0.002670430311301795,0.0025831468328809193,0.002364408835630517,0.0019340396616069281,0.0014791131821899736,0.000842379810283061,0.00011820368224190809,-0.0006098705817484822,-0.0013765980411377494,-0.0020566529083059265,-0.002676456977134277,-0.00330547074378984,-0.0038732781966670416,-0.004369637599227903,-0.004933322902182242,-0.005418368530614881,-0.005831304010802393,-0.00620514423785594,-0.0065537600886444655,-0.006951772976603189,-0.007432605648753245,-0.007886869233312143,-0.008254063749342615
-0.008517939398686438,-0.008061234656302452,-0.006675587032363002,-0.004579132642889894,-0.002158651996932073,0.00025210824243484316,0.0024152866469092055,0.004263252782277655,0.0058012804560556705,0.006952340226504764,0.007653715549829146,0.008026051029506707,0.008173750453901006,0.008228560208031527,0.008105199582723994,0.007752746713121569,0.007271041183513752,0.006696305569921548,0.005991481426028482,0.005087098526518283,0.004200315624319499,0.0035252982982221064,0.0029525820267826716,0.0025218663562290187,0.0022573100521796692,0.00211416511243903,0.0020678349578579936,0.0018787926418663066,0.0017110974183810858,0.0014443651556277455,0.0010891418996624399,0.0006946459200562419,0.00029758812435102627,-0.00014327592480902024,-0.0007782436291618646,-0.0014195949257101933,-0.0020565512400902764,-0.0026696068136299878,-0.0031932821364889365,-0.0037547860589739294,-0.0043154133323045785,-0.004832916021313269,-0.0053686385081555205,-0.0058402927788605286,-0.006260318293745377,-0.006747707736058812,-0.00722072085292979,-0.007681302768682272,-0.008129125158807033,-0.008486028802789017
-0.008049277074976643,-0.007735526015497408,-0.006548213597633898,-0.0046852636651134654,-0.0024848107871772475,-0.00042606439070033827,0.0015635524393832374,0.0032218511740419935,0.004637702808467895,0.005687614299518758,0.006229516026809247,0.006523560614314034,0.006682045986137569,0.0067184593356789625,0.006597885687728172,0.00632374651391735,0.005786181378363584,0.005114483750337412,0.00441259275074158,0.003808360480382418,0.003258851815852164,0.0028847920026316433,0.002650255054408898,0.002486582797209626,0.0025818471163331085,0.002741124013510307,0.0026115376398346615,0.002431686079180408,0.0022300107340283014,0.002018575608155483,0.0016751644212417245,0.0011460347263445162,0.0006285078742711902,0.00012646959741965288,-0.00051141505376438,-0.001284184090660117,-0.0019625654720486327,-0.00254461965995566,-0.0030550136330823215,-0.003448202429507049,-0.003929132030652272,-0.004370646642863974,-0.004712575361604078,-0.005032284135944107,-0.005422725998850605,-0.005846939012181351,-0.0062898846978446015,-0.006705125902176756,-0.007082383632038551,-0.007464149781082557
-0.0081473685117108,-0.007860466680665529,-0.00696570938554683,-0.005452662426529971,-0.003336475584925405,-0.0011054421545412954,0.0009403179941140063,0.00278685405164945,0.004334789985172202,0.005424348644107471,0.00614861762299224,0.006630743051234053,0.006812178383506093,0.006790177808637973,0.006760801119583666,0.006714683859561687,0.006660345137813173,0.006655677534721842,0.006481283207895018,0.006105920566703717,0.005580532956832483,0.004957309927402971,0.0043942010241705375,0.003965164687398851,0.0036000090560313696,0.0032551977808026682,0.0029775479667827863,0.002689474394699938,0.00230253498985869,0.001900258481796353,0.0015547837811368613,0.0012843008718589973,0.0008632674211411978,0.00029480349624961416,-0.00028888854739334116,-0.000886348193558768,-0.001486050623480181,-0.0021420980437662765,-0.002776900769040556,-0.0034911610267771495,-0.00423026144187474,-0.004839855020791414,-0.005451002748096514,-0.006082725921402556,-0.0066494881278811695,-0.0071797724215259305,-0.007673875519370155,-0.008068549766100434,-0.008420711019113639,-0.008756499600123308
-0.008243428102446472,-0.008212691145576215,-0.007623919540988753,-0.006478657156083309,-0.004796059862033626,-0.0028107186377689854,-0.0007949386887236043,0.0011629607041667006,0.002860499030366005,0.004161148011056075,0.0050460573419013445,0.005675008613010887,0.006117135181034623,0.0064205860085880554,0.00664653702737458,0.006771878959079744,0.006785314985941299,0.006709714727746569,0.006622373612737653,0.006481950856843927,0.006158941425013906,0.005729154085958443,0.005189257846536486,0.0046053464391334195,0.004065230771498625,0.0035945203077761435,0.00312239748513596,0.0026349943506593526,0.0021822662263589914,0.0017907258939309516,0.0014345466768732747,0.0010860062803534018,0.0007660001867920702,0.00045555444866971504,6.738615991482653e-05,-0.0003690249072520881,-0.000797140340294301,-0.0012507368463281555,-0.0017529330862897704,-0.0022958868264960903,-0.0028531154590442677,-0.0034806708967773524,-0.004127792756513415,-0.004632766837168148,-0.00510638228137209,-0.005688311091270426,-0.006236356022469132,-0.006741836624567704,-0.007214673429943567,-0.007639081484945763
-0.00876327567801235,-0.00862057802887957,-0.007967817096353838,-0.006775218647032452,-0.004934671219896412,-0.002663318766838977,-0.00026138532823734235,0.0018992033652522281,0.0035886034744956503,0.004806504974012388,0.005636739565099795,0.006200991938103628,0.006620150299210215,0.006874791012453725,0.007085301807391211,0.007252843919926242,0.007239957271014337,0.007207194614407771,0.007175812634447057,0.006900838384954221,0.00649464972849325,0.005974180912202116,0.005304978403605506,0.004660824029178567,0.004090851067845105,0.0036260530054705252,0.00314060673145981,0.0026126979552780895,0.0022298865731943773,0.0018974170696390248,0.0014932591021723683,0.001130809055972129,0.0008305132916614693,0.00042441759169817376,-9.590779301479667e-05,-0.0007493843971504146,-0.0013511746607964426,-0.0018705057158265985,-0.002486732456310253,-0.003216094593527369,-0.003959801273836601,-0.00459008663921719,-0.005179663197254253,-0.005769039139534359,-0.006354585781527638,-0.006873922377680979,-0.007355729092707475,-0.007853172202779254,-0.008342965302965926,-0.008817333208227626
