-0.006822782091296273,-0.006803620529641879,-0.005588122130501267,-0.0032425273585174053,-0.00016599503999821259,0.002291101618863292,0.003493615845596325,0.004299991930128644,0.004872883306578641,0.005221349922868834,0.005341313425529139,0.005271304964428099,0.005130452115104397,0.004929008340209844,0.004618860532221996,0.004229820351925226,0.003887158976824918,0.0036287280393368895,0.003332520297357834,0.0029463163267106148,0.0025459245080098536,0.002051023205819187,0.0015193308213250654,0.001054779467244899,0.0006605746502333878,0.000345104743058377,0.000156278939748743,0.00014637350171318802,0.0002329535252344287,0.00029804927679970354,0.0003324202005109522,0.0003776522400211601,0.0003648705242075419,0.00027745506342992366,0.00015371641507323607,1.4065360822469966e-05,-0.00023797825629599226,-0.0006277299641079017,-0.0010720109255994096,-0.0014920633236397605,-0.001955994406526479,-0.002463078580128946,-0.0029195389642932773,-0.0034388323049262667,-0.0040934778281976345,-0.004578550188511626,-0.004970719109638836,-0.005455496492531188,-0.00591775534534817,-0.0063202675766077035
-0.006070317973310689,-0.005796765854375861,-0.00449302757411926,-0.002330862181114967,0.00017074706613515495,0.0019211635795759216,0.002935959402169449,0.003590800290509622,0.004023539651792547,0.004215044198108642,0.004216656200074988,0.004170343740640344,0.003988196815523985,0.003735087421758994,0.003502835956163521,0.0032616859630190584,0.00305314390894845,0.0029067202301981112,0.002711628158364337,0.0024412217988913324,0.0021815841236168614,0.0019193039721584287,0.001577317014686828,0.0012903503123753825,0.0011838427344382219,0.0010756588383202864,0.0010205104539871676,0.0010916096245520285,0.001137185365237959,0.0010969789824122889,0.0010750437826131357,0.0009979706882626946,0.0007429960204202996,0.00041915157837363434,0.00013446252195556188,-0.00024176710397605375,-0.000758953341838488,-0.0012567745596338132,-0.001696701355469757,-0.0020977479427878635,-0.002442855207004267,-0.002821622245328597,-0.0032247622924505034,-0.0035308476666990633,-0.003865318970320176,-0.004226497756664838,-0.0045714902281839935,-0.004876980074993309,-0.005172800725821804,-0.005482613953912039
-0.0058831450730024125,-0.005400584909559079,-0.003544178506922755,-0.0009868592107221425,0.0011222662744653324,0.0024374800203196658,0.003250810423075217,0.0038286573476395474,0.004131319971964524,0.004210027416463505,0.004133177225287197,0.004024401743107834,0.0038363647837381595,0.0036197009319385264,0.0034076697441842415,0.0033218440743348903,0.0032131159095936937,0.0030978676629695393,0.0029060376878518508,0.002572749902941922,0.0022294877677919234,0.0019437864875371169,0.0016422044357496525,0.0014078568694587314,0.0013409525630563362,0.0013516859264497603,0.0013711380479621484,0.0013285344990051125,0.0012117104811172317,0.0010800343437279813,0.0009390976083126857,0.0007636571976985692,0.0005619519889741971,0.00024236836151136516,-0.0001596273368689046,-0.0006122331577598275,-0.0010557931110416368,-0.0014803355986931878,-0.001886341652144494,-0.0022774773579300332,-0.002688748499308896,-0.003115178030061798,-0.0034750228830241372,-0.003807493537225498,-0.004151772534240081,-0.004551560195632329,-0.005007323428282731,-0.0053912185644068075,-0.005775059231637367,-0.006206918243244174
-0.007531553033040484,-0.007384682901118895,-0.006060076410547706,-0.003746070859293256,-0.0008297138668578196,0.002063294556040145,0.004291603755223281,0.005660396202003245,0.006327861074327352,0.006596685488215456,0.006665410461886083,0.006572722014926747,0.0063566185177237125,0.006047762125577569,0.005717315824364135,0.005442436689888868,0.005116344788336957,0.004649719685448623,0.0040597169091259305,0.003511287879070697,0.0030687889231477052,0.002727138689876372,0.0024807303326326016,0.002306142166360549,0.002293056823486254,0.0023123933585940423,0.0022485694195195647,0.002097049970750447,0.001826882005191521,0.0016173805107018567,0.0012512230449559063,0.0007045362475920093,9.02936859685314e-05,-0.0005647977599100106,-0.0012220222864162142,-0.0019468301270144585,-0.0026829593777003345,-0.0033671407528281182,-0.003915292710674898,-0.004364089925690503,-0.0047212384332804315,-0.005067072441678974,-0.0054177551690299496,-0.005661034725082944,-0.005915796532394,-0.0061907253342788245,-0.0063698995325354064,-0.0066911445269532376,-0.007076804099649534,-0.007371522968018791
-0.005235455346727936,-0.0052174826705494795,-0.004572852807887803,-0.0031192572827059674,-0.0008081675156335832,0.0009328027094027622,0.0020700547582258267,0.0028504289395525208,0.0033711880306653385,0.003679708768005348,0.0037734049655417366,0.003667108417159318,0.003483696660149569,0.0032470934478951276,0.002999466703589568,0.002813110302650449,0.0026807043121984085,0.0026269139089402215,0.0025164788099740856,0.0023300251559369356,0.0020785607734310637,0.001848379763646723,0.0016565615417305796,0.0014448203672477494,0.0012885559586395816,0.0012142682846730602,0.0012028506679437443,0.0012004079434093167,0.0012012295522347899,0.0011611110503945542,0.001057622763283219,0.0009164632238353068,0.0006880033031017765,0.0004396289515668376,0.00020013710322766928,-0.00016300516547609444,-0.0006333056975693888,-0.0010024721980396627,-0.0013496370812453775,-0.0017534531947591993,-0.0021293649541875652,-0.0024289478267768188,-0.0026944349207520934,-0.002933418198796341,-0.003198465154624773,-0.003484897820098878,-0.0037688287934419776,-0.0041464524483029305,-0.004498398156906707,-0.004746078759027326
-0.005184168736123709,-0.005211453704850468,-0.004127093773473409,-0.0021578775173453635,0.00017464369028104688,0.001723853746941185,0.0026752236304979126,0.0033245984774112358,0.0037749600797303043,0.00395228307316408,0.0038943555926857724,0.0037102269343245566,0.0034807739019749938,0.003220039497827295,0.0029632694116669763,0.002809298828607093,0.002734322672321079,0.002676282915257481,0.0025546479165582414,0.0023375818580006914,0.002092742670802235,0.0018616068075834047,0.001624405668232929,0.00146118278423256,0.0013732131034268017,0.0013202623776902346,0.0012956801243838463,0.0013028846167094535,0.0012880910056896197,0.0011012316380650806,0.0009638909449009858,0.000842425887633102,0.0005820513458545274,0.0002466758470014364,-0.0001383985012556875,-0.0005548142250644981,-0.0009770851196744762,-0.0013877808278197812,-0.0017865714649935,-0.0021786241455934463,-0.002549363667355394,-0.0028219199909592712,-0.0029924135271629207,-0.0032010862348755427,-0.003507317840733752,-0.003870825801921838,-0.004205894597508904,-0.004502843640558054,-0.004798165385790071,-0.005117972541435165
-0.006816446027982948,-0.006391940129424061,-0.005092722244207857,-0.003009931246570915,-0.0003744337129929208,0.002203601594911038,0.0043335724842078595,0.005828841616738094,0.006626377157810128,0.006875010364787188,0.006789239842000239,0.006583352394691978,0.006380221567565762,0.006059916487093038,0.0056998133031612025,0.0053357571972694985,0.0048967739879696714,0.004391630759669981,0.003817362819353953,0.0032654703744806283,0.002676541076698379,0.002251952869000572,0.001983812183658346,0.0017396594552447214,0.0016246265222703807,0.0015466881256341466,0.0013886109060094682,0.0012196196258291827,0.0010920803260912122,0.0009102988636379563,0.0006247774079402654,0.00022302004042610917,-0.00033933303574624926,-0.0009196194983166925,-0.001552567312895895,-0.0021427434760020177,-0.002762841101023617,-0.003319431449552478,-0.0037517847501192837,-0.004153052812665905,-0.004510334936715467,-0.004812275845002193,-0.00504939390885899,-0.005346417748472191,-0.005620958155977718,-0.005821577693750005,-0.005986258268954652,-0.006175088499813193,-0.006398122286423835,-0.006648623912648341
-0.006557518908440172,-0.0063627783621843185,-0.004889169594639952,-0.002390776643496834,0.00046986179697502907,0.0022064169840091243,0.003258203321841324,0.003953151662474375,0.004399257827879857,0.00459172594246736,0.004554736376891289,0.004381488247208239,0.0042290278761616725,0.004021222656326753,0.0038109922639163497,0.0036698995203468254,0.00363132964248472,0.0035126220444767417,0.003283864359291716,0.0029842320327303122,0.002665643932481916,0.0023720464112243524,0.0021423170510537024,0.0020006429150193146,0.0018979342862491643,0.0018608265149192202,0.0018572610051952035,0.0017976514103660106,0.0017214859195925256,0.0015602250780128468,0.0013068938060048366,0.0010594565216537752,0.0006073425270257383,8.324797872897472e-05,-0.00038288362404564533,-0.0009541577641528467,-0.0015120559774699205,-0.0020308547007221152,-0.0025205896073392537,-0.002902169174271023,-0.003254018910110288,-0.0035898479270489803,-0.003866149538127769,-0.0041192069552778935,-0.004428742776809775,-0.004808702248323065,-0.005192762643931696,-0.005656073202139576,-0.006078393002373733,-0.006341393421721601
-0.00847527224470403,-0.00828523778743547,-0.006425479687042698,-0.0031133223725703318,0.0009691808167965831,0.004591449922843039,0.007188318379958118,0.008573107613241872,0.009171727571166036,0.009311069160664013,0.009209360098623432,0.008900808704145976,0.008424615084009298,0.007862628159223815,0.007338953891245981,0.006815337072180768,0.006219333871128505,0.005575090383905089,0.004813784876937606,0.003935351785036416,0.0029752492129389387,0.0021177529613532614,0.0013728450250060583,0.0007994397291668271,0.0005285276614215243,0.0003892991355511696,0.0003253187756455901,0.00034291963217002034,0.00029482182366129934,0.00017296059896140863,5.419299243410165e-05,-0.00010261897557182074,-0.0003605445128930422,-0.0007564263040352862,-0.0012750637556976027,-0.001959601379609578,-0.002618830287168263,-0.003141156843185656,-0.0037313588772102534,-0.00443389553423843,-0.00508454148218784,-0.005488691902756783,-0.0059440496602963435,-0.006468681217061256,-0.006754849693703454,-0.0070727833458321815,-0.007473951922710902,-0.00784567069915778,-0.008154941315968082,-0.008377427508425687
-0.008846004028424536,-0.00834755017080905,-0.006049274227630856,-0.002326940945095224,0.0019996250751481348,0.005228200011679618,0.007176594288449835,0.008075191786081461,0.008456933622944508,0.008505071636750555,0.008328913142086765,0.00801000189901176,0.0076258183628365355,0.007175934208317168,0.006653690797322655,0.006171403506083274,0.00558425695094329,0.004917425365889563,0.004250425679115754,0.0034876688933063883,0.0027879539601007777,0.002210223548001164,0.0017024672808843776,0.0014099200926635897,0.0012655468960651392,0.001278031345270406,0.0014134310569524045,0.0014588031441139693,0.0013663427474851675,0.0011150148638888694,0.000754410952820269,0.00028175777712869163,-0.00033195716724394766,-0.001082753300057145,-0.0018391128647398895,-0.00256551171072275,-0.003328158487218333,-0.004044356854550317,-0.004662781399766157,-0.005195363970845861,-0.005648968006780348,-0.006024256889795536,-0.006364049703967424,-0.006640390141884163,-0.006941253264321637,-0.007292425095631784,-0.007644404184885561,-0.008024682858405414,-0.008363129757723084,-0.008609834621751921
-0.006250249258613081,-0.006231954682300575,-0.00565663933384453,-0.004328165687830322,-0.0017604238615647994,0.0017733254491071448,0.005255701702402554,0.007989728179131768,0.009520493106593354,0.010175613581679965,0.010213458090402352,0.009887246940915497,0.009296920922799077,0.008543577488984485,0.007743403364680237,0.0069067113587255435,0.006047946676518549,0.005272843599069399,0.004481971952880344,0.003684126567310404,0.0029179310864288917,0.0021719952278409136,0.001552478058648021,0.0010547026141094328,0.0005822514355669321,0.000271486215033327,4.0138848125464865e-05,-0.00018377153112812176,-0.0003322772041511724,-0.0005077689302251015,-0.0007611598000150019,-0.001123826588177563,-0.0015453130255961415,-0.002047619627078052,-0.0026026951137334813,-0.0030304918672098913,-0.0035598244225402776,-0.004137970711430338,-0.004642721000564416,-0.005035040442966591,-0.005289328352949266,-0.005483814023526868,-0.005648112549976808,-0.005814815448333459,-0.005914911217761299,-0.005902714887789675,-0.005924853836172091,-0.005967425589108916,-0.006020441571270755,-0.00609621164282113
-0.006180241363777309,-0.005725439569820237,-0.003953039556338865,-0.001468239373704594,0.0006378288745028269,0.00200321543977661,0.002923118693895636,0.003687415771881702,0.004124934249165368,0.004319818244261017,0.004326818491222105,0.004232650606769363,0.004097815519053808,0.00389397804333675,0.0037088627451009135,0.003656023734619398,0.0036231245182933563,0.003476701715162591,0.0032943292602458547,0.003037984951013029,0.0026528239317694796,0.0022901076104604127,0.001997591978049923,0.0017384014278136076,0.0015517986238487533,0.0015085550154605222,0.0014841642011010916,0.0013916285415984447,0.0012741839444288063,0.0011788382164748703,0.0009987637282439566,0.0007773534354919519,0.000544346475181932,0.00020480300504343682,-0.00026084632688124507,-0.0007468975301132893,-0.0011815941359374278,-0.0016504958825492232,-0.002080434293336956,-0.002474316180592289,-0.0028202566423217662,-0.0032103065762517416,-0.0036039832391892047,-0.0038785531089870124,-0.004218232248943783,-0.004640167896392653,-0.005108928656236463,-0.005496516907677262,-0.0058361426921693,-0.0061533612076009395
-0.005506519574041595,-0.005462648382737578,-0.004622888925883001,-0.0027203381122090304,0.0003799899398154634,0.0037695236941251665,0.0064939655611810105,0.008245034575468253,0.009065437211190271,0.009254943803079688,0.009056555194400129,0.008616843604833732,0.008085917075159505,0.007367387971545311,0.006679315034005164,0.006014343758937466,0.005347942803199825,0.004664217525335249,0.003898110126104473,0.0031054868758246786,0.002408176667743935,0.0018466289939614595,0.0013236627238582478,0.0008083271058882094,0.00036533517924582754,3.78860380272353e-06,-0.00026447154167695834,-0.00038341018402514873,-0.0004953116712596833,-0.0007318491048195709,-0.0010426481168548311,-0.0014340429282631852,-0.0019022898043219443,-0.0023828110841978547,-0.002844272355577141,-0.0032935521908335247,-0.0037303258451621612,-0.004162688922869371,-0.004493420523838363,-0.004755791576352247,-0.005001413572538792,-0.005136394073948699,-0.005261855654943787,-0.005402598975581159,-0.00543572533400353,-0.005426120550926852,-0.005403158780545321,-0.005416447205795263,-0.005450598011682267,-0.005484425471331801
-0.0069752631891698514,-0.006592243266356927,-0.005149624737161627,-0.0029348545072392703,-0.0006128327972985397,0.0012704985146875553,0.002623604253330745,0.003590395721702836,0.004298039085847187,0.004719165365986729,0.004810382308380585,0.004725062991699752,0.004578672761701141,0.004409374941131273,0.004202394840101586,0.004043719180867699,0.003974784373358187,0.0038818752282677644,0.0037126051231321277,0.0034009271756063617,0.00293110762429152,0.00245355061293248,0.002033110072287525,0.0016391572534995656,0.0013330836665564928,0.0011493669507591617,0.0010582482039591416,0.0010804356996646754,0.0011013207516640982,0.0010619158557587287,0.0009459382669524178,0.0007441959923202462,0.0004808223387694063,0.00017469671083624515,-0.00011934216193960047,-0.000567932476141251,-0.001113996990750528,-0.001612170311273842,-0.002102701696595404,-0.0025827497762991912,-0.003076795227049357,-0.003443261302968923,-0.0037966842625537993,-0.004253046645375796,-0.0046748079606489315,-0.005055934597161095,-0.00542851592776799,-0.0057937481956943536,-0.006142306867783819,-0.0064777705883884654
-0.007755242453250049,-0.007644529405597233,-0.006239783522347498,-0.0036643180069846288,-0.00036956434548763445,0.0023331646274190087,0.0038909765238156783,0.004906100235633454,0.005544311004439773,0.005917004590000113,0.006032467975117372,0.005973820639738975,0.005846714902950694,0.005539375188718282,0.005131428803032638,0.004767849903284509,0.00444561570470598,0.004174733366821502,0.0038732699123038465,0.00350620478698805,0.0030697069400474316,0.002540968658558163,0.001988617793554503,0.0015091193429554032,0.0010951048731125408,0.0008127533529695396,0.0007052784801724569,0.0006619140270208329,0.0006177375950845495,0.0006013739090577419,0.0005823282626217046,0.0005894555090830882,0.0005575116845299782,0.00039498278808262335,0.00015168858442255525,-0.00013350654261074912,-0.0005944503146594002,-0.0011164505789738716,-0.0015870878868173852,-0.0020787490198510275,-0.002640852210936976,-0.0032569230226510448,-0.0038580723516289618,-0.0044134837871956985,-0.004854170576023636,-0.005321058895374443,-0.00583095156584176,-0.006307421780262574,-0.006791651630797465,-0.007301599924390337
-0.008059276507145887,-0.007953286716041081,-0.006767734410923721,-0.004356974663838228,-0.0006577167290147509,0.0022546457307746114,0.004058079461233589,0.005112517752871089,0.005752575746471859,0.006104041549990552,0.00622765011888321,0.00609205411549892,0.005845312325530337,0.005538108175647173,0.005130725522314759,0.004819783264338019,0.004594961908696444,0.0044661369202955836,0.004248113493910575,0.00384380310318176,0.0033891958452068145,0.0028897486105853147,0.0023198225346363066,0.0018149758994695613,0.001440352704687651,0.001237785649015043,0.0012111990142240653,0.001254901133320595,0.0012428994434988958,0.001177832204263412,0.0010145509400929888,0.0008038054821904908,0.0005458567486375082,0.00020543613111072978,-0.00025264448173738013,-0.0007999414735993446,-0.0013958927517054983,-0.002007913529120665,-0.0026007587205965823,-0.0032504351228178664,-0.003920792769465253,-0.004392744307991088,-0.004782332797747084,-0.00523123832646424,-0.005581419003300338,-0.005931249101569392,-0.00638000998059539,-0.006950391872496105,-0.007415858533187444,-0.007657059515547321
-0.007825722174695703,-0.0076162061420575935,-0.006097122611027542,-0.0032383693107050785,0.0004905086844609664,0.0032445509344563566,0.004882446282188709,0.005839624631681637,0.0063676117163047686,0.0065204162449918725,0.006495420605300261,0.006282142283215723,0.005865894387051585,0.00543903634551431,0.005071801744850699,0.0048119428594646995,0.004693085869107976,0.0045333528727670176,0.004208513133768559,0.003811037573017417,0.003289827191284657,0.0027344032030474316,0.0022246721944310494,0.0018742391590776057,0.0016404846177175728,0.001479628277545322,0.0014433615219233194,0.0014899451306199987,0.00141856905575958,0.001294648158460131,0.001112324943602858,0.0007670598632045452,0.0003270416608920459,-0.0001508394196535546,-0.0007158827004337423,-0.0013160922525314043,-0.001924853843866023,-0.0025678711357514225,-0.0031994757023267916,-0.0037181549723205956,-0.00422779411634025,-0.004733318032651765,-0.005088435387867632,-0.005411810412691424,-0.005800939725118086,-0.006157822125732195,-0.006529717227110734,-0.007027686828033403,-0.007453429373210299,-0.007645737066129097
-0.008122035736918835,-0.00802432646411861,-0.006855879549639205,-0.004324260896640598,-0.0004687123269409685,0.0028560436187850436,0.004992487260781779,0.00603151412646921,0.006529616686825929,0.006733314172539474,0.0067321736692036085,0.006490540451300845,0.006162783024169445,0.00582485706127014,0.005509931222825502,0.0052705801788292305,0.005169976616259796,0.0050078078829623365,0.004682591051302294,0.00429008526877968,0.0037559072055157634,0.0031725178211145033,0.002584403887453364,0.002130773615388916,0.0019164721823953141,0.001715266591837915,0.0015968890896688953,0.001571668836439997,0.0015335664968248559,0.001423297277402672,0.0012037635091859864,0.0008864115476329982,0.0003627198759714197,-0.00024117011416357402,-0.0008600220439602204,-0.00154367152507418,-0.0022101322412179697,-0.00292960939868998,-0.0036178972661499277,-0.004123753870893544,-0.004587666309481018,-0.004974673720045845,-0.005318886128304456,-0.0056851662343652245,-0.006015474206870659,-0.006323104599765686,-0.006698298027897806,-0.007129296242985737,-0.007524670125310235,-0.007833380647171881
-0.008085071865212177,-0.007859939342164134,-0.006518327185535261,-0.003961086125031623,-0.0002511808792958056,0.0030880849669584253,0.005456815058597425,0.006851349355417426,0.0075859322097167085,0.007787299367469001,0.007707023583298953,0.007507061467727895,0.007138720222766673,0.006730951904658871,0.0063308394417299985,0.005867145531548731,0.005447212830285248,0.005124957133314045,0.004734924810716296,0.004230122306101076,0.003649232191790722,0.002961812989819678,0.0022705966806346105,0.001694994826490778,0.0013349847297043436,0.0010399658700148695,0.0007972998923806713,0.00071866531129598,0.0007022222725161302,0.0006739574103720089,0.0005510887324767985,0.00036142623018403837,0.00010580439124670973,-0.00020543509050983228,-0.0006277462897794226,-0.001195584102664018,-0.0018738692130552154,-0.002556706233532513,-0.0031868007647018926,-0.00380199689256285,-0.004424278591858446,-0.0049746066408262015,-0.005428383742927933,-0.005859920297560108,-0.006290911271924206,-0.006657857336859466,-0.006982278356090396,-0.007359668437047176,-0.00771282650270572,-0.007996300135305098
-0.007965900018364004,-0.007379526111636114,-0.005297051517939796,-0.0020581115456656703,0.0012636763253888773,0.0037233356582465375,0.00500788567377391,0.005821735572303915,0.006372576800575585,0.006716287976147865,0.006772117715897247,0.006645637926240639,0.00644642713978465,0.006124863279017379,0.005788117736418616,0.0055532195259169635,0.005287649977084161,0.004922378209640919,0.004468567802949347,0.00392873306330591,0.0032902769871818276,0.002634383269178083,0.002013158776457403,0.0014300510570217084,0.0008862901597843082,0.0004515448386490335,0.00021838492697734337,0.0002118765424806372,0.00024408648437132746,0.00023271735965394038,0.00019473287719207373,8.365845989214005e-05,-9.36706094527191e-05,-0.00030587668244028,-0.0005556635677944137,-0.0008486244558376678,-0.0012143703535325962,-0.0016947828143935833,-0.0022983418282550463,-0.0029694566465769535,-0.0036040757105660296,-0.00415124683663411,-0.004801951051218572,-0.00545500521104844,-0.005933829590445784,-0.006434293254345336,-0.006938359173453529,-0.007297041749457623,-0.007647868615881969,-0.008040243320536055
-0.0077804768738062614,-0.00781582169526069,-0.006787408108700165,-0.00466551803206303,-0.0014804875019809156,0.002139410869675507,0.004886338846064926,0.006618932396763663,0.007506998991660033,0.008049995650057009,0.00836978258364681,0.008451873360619491,0.008300758285110057,0.00791303338734341,0.007351369185853125,0.006670048133863526,0.005926406592211438,0.005156064525408631,0.0043385646755538364,0.003548516578809084,0.0028893987166414285,0.0021939781719859824,0.0013892865200903987,0.0007077629652236115,0.00017820916138039025,-0.00034721642551032307,-0.0008440653918265523,-0.0011224803272464735,-0.0012204884669233733,-0.0012739638803379734,-0.0012309830889450314,-0.0011207067854521037,-0.001064300996974828,-0.000984248230632301,-0.0008906560260600582,-0.0008933197312614939,-0.001017293226569205,-0.0012515469736100906,-0.0015854064868756844,-0.0019955179360435903,-0.0024838814731462013,-0.003057987355211121,-0.0036996361513139875,-0.004317055511512882,-0.004910283937918721,-0.0055145186705875225,-0.006134177432923078,-0.006749180026135668,-0.00722840256343126,-0.007552487789501762
-0.008335146118326028,-0.008332299032463963,-0.007680402072491143,-0.005886070163604804,-0.002188874500515133,0.0015468293358090394,0.004350344623485059,0.0057627010451260716,0.00670683978135654,0.0072847238105444205,0.007407518203502689,0.007289270798751001,0.007020801107483961,0.006657675734438241,0.006152712884325796,0.005687914008900091,0.005398668906427076,0.005156920358819275,0.004825961500116079,0.004428230766143751,0.003953036202835667,0.0033425018585749823,0.0027337023859016502,0.0021788249806211552,0.0016481722125699261,0.0012852924556870093,0.0010669330616544953,0.000923141739716902,0.0008985236130237205,0.0009262276115172297,0.0008833140979765613,0.0006882139331988286,0.00039459518401258915,5.947576863414935e-06,-0.0004377769667087099,-0.0009420819527453097,-0.0015316160626117612,-0.0021454431136790236,-0.0027697725945392453,-0.003385449933387567,-0.003974006139938089,-0.004454793881026601,-0.004927720639055219,-0.005466315873675454,-0.005913441582327312,-0.006349501150804383,-0.006813229751494574,-0.007289295459735934,-0.007693931665716705,-0.007981463794539671
-0.0077978077941395114,-0.00790911369074815,-0.007196969408857556,-0.005453727771388374,-0.0022496054116121727,0.0009425992219121505,0.0033836969493767736,0.004825829082117541,0.005809888603280836,0.006456923102067507,0.00661307760051553,0.0065433755680007815,0.00633152606564236,0.0060091230358488915,0.005559865844212811,0.005079865333939185,0.004778294963122101,0.004550621728973728,0.004331843316762979,0.0040597768171168995,0.003621726170810775,0.003074091177044506,0.002496009092760051,0.0019195904328565927,0.00143458784132714,0.001116313878870554,0.000911007855566444,0.0008030825951049619,0.0007732009895023911,0.0007740297362264302,0.0007676062351097232,0.000726479524106622,0.0005540771924594883,0.00026005499869396554,-9.478486621694932e-05,-0.00046114394746493806,-0.0009523889438042433,-0.0015514800799996888,-0.00210624939982475,-0.002640063541948014,-0.003210523230886406,-0.003910891609265358,-0.004526262448194737,-0.004995123945884265,-0.005430264909293377,-0.005815605876527223,-0.0061790389681866675,-0.006618034766003178,-0.007025108603998435,-0.007355819418862574
-0.008236996354986885,-0.008222992639362289,-0.006970534217182402,-0.004391085578746952,-0.00035984314777372147,0.003317401506438038,0.005858635050046129,0.007289387251511347,0.007969166108672498,0.008217781808546027,0.008310063327355004,0.008179488456001057,0.007810809316811132,0.007222762847876975,0.006591561582558808,0.005972335813945761,0.0054021739874452,0.004933879503793726,0.004412273305801802,0.0036863659192239084,0.0029712177840663274,0.002314451095025181,0.001728644826542695,0.0013093067502862308,0.0010047246501889058,0.0007135354261986181,0.0005014891600145743,0.00039383297363812015,0.00040486950881294846,0.0004174336760101962,0.00036845088654096866,0.00024165391789852036,-4.521851082495901e-06,-0.00026164452948291905,-0.0005902039042609501,-0.0010229514015104415,-0.0015719459843054665,-0.002262672788052455,-0.002880188868684713,-0.003432344139233761,-0.004011641903922693,-0.00466183790757522,-0.005197493228660704,-0.005632182639464944,-0.006179539167978475,-0.006646191719167421,-0.0069948744406257935,-0.007322088152273875,-0.007642346814675201,-0.007957508879645386
-0.008186677854263925,-0.008120781276765627,-0.006906314405524737,-0.004302536442034054,-9.84158212620547e-05,0.0039136924114681945,0.00674830712723312,0.008079766773344571,0.00874410934810093,0.008994354123912137,0.008930380053512528,0.008630283777975752,0.008089299890862683,0.007426030888641518,0.006717138534517462,0.00605336038299085,0.005557539787697642,0.005127329468904497,0.004602790574771612,0.004023998493386371,0.0034279571291193564,0.002753271329597939,0.0020820618034479346,0.0015165533989379316,0.0011733466186484107,0.0010128683524017242,0.0008264490622071502,0.0006838643284509773,0.0005617667704341894,0.0004538248218269394,0.0002511243971940956,-5.134271384612785e-05,-0.0003449916542412872,-0.0007289447437090655,-0.00125525451668052,-0.0019077885451227721,-0.0026152302405462293,-0.0032099288325520585,-0.003818176108331073,-0.004407191807196323,-0.004966590944507894,-0.005493869713496569,-0.0058828986783547865,-0.006246030614597765,-0.006581047668180898,-0.006904608937160642,-0.00725827354004349,-0.007547115470864684,-0.007809216934324849,-0.008063195148122697
-0.008827082342706004,-0.008520613762448417,-0.006447576652843463,-0.0028722203521963476,0.001495049532125483,0.0045114926610602705,0.0062448496823817095,0.007153955017141836,0.007579898662250282,0.007734949874652697,0.007700802562199044,0.007413364155472703,0.006993568375608567,0.006540638449224485,0.006095831590376195,0.005773436308184157,0.0055607622891148765,0.005376482168676919,0.0050203177896502955,0.004366445054291634,0.0036216131802126127,0.0029702014815514237,0.002448317160935282,0.0020029137812682413,0.0015540168387694901,0.0012509731895643706,0.0010953269195991208,0.001030924763766854,0.001053689588592022,0.0009670436752317097,0.00065422490058849,0.0003708455326254448,6.982001443853006e-05,-0.0005637546427589764,-0.0011657860855756191,-0.0017624804524987003,-0.002574513579695312,-0.0032726255572297146,-0.0038869357408152787,-0.004439543342297677,-0.004946056650406672,-0.005428907554261503,-0.005873205550356652,-0.0063089766140702105,-0.006726836173589845,-0.007107866684233799,-0.007428733150234701,-0.0077461922159451375,-0.008039601587972213,-0.008291044448801707
-0.008336163041774713,-0.008073158702448116,-0.0063527868313166405,-0.003325830709738322,0.00042962505670649155,0.0033080257037491154,0.005063504604074872,0.006096820679856273,0.006685785569821034,0.0070126555887056186,0.006995135769242656,0.006772827383546279,0.006457405053099975,0.0060576864141844156,0.005678803850357912,0.00536770645221999,0.005138878682509413,0.00491497992453976,0.004623219042956105,0.004218157137504192,0.0036631839240397067,0.003033225454356606,0.002451994577249113,0.001989382033379926,0.0016001141136886602,0.0012986542907023756,0.0012072430352003095,0.0012065536812539564,0.0011348964310582724,0.0010383193041430768,0.0009069084384752112,0.000632471109174108,0.00025033543120403214,-0.00019237943577325378,-0.0007077872420738196,-0.0012110607251874432,-0.0017450701539472994,-0.00241474082538723,-0.00307130123000974,-0.0036975082812030465,-0.004239905575567953,-0.0047073013133422745,-0.005170622129982627,-0.005609493056261478,-0.006036803210298554,-0.006457974482737775,-0.006855668859279306,-0.007163395544658774,-0.007510092991681854,-0.007976310772501353
-0.007464422912768046,-0.007384541787564083,-0.006226284767595498,-0.003883571391109906,-0.0003246454134864147,0.0024456159182938827,0.004048672213179205,0.005083750678818753,0.0057976827242875876,0.006148887387977083,0.006174239274268497,0.006065938908371018,0.005843284592662955,0.005579435999033026,0.005241814063005973,0.004797375547411466,0.004473842016639614,0.0043558466699916195,0.0040918448394802204,0.0037219044832649756,0.0033307059080058504,0.0028785997606691495,0.0023023497922114397,0.0017777976123279342,0.0013642120855009532,0.0010977234597262062,0.0010028210303727413,0.0009680772087447579,0.001004331699374356,0.0009504876555458003,0.0007739359851911034,0.0005648192294133771,0.0003908451791361795,0.000212372973661734,-0.00012521173681880938,-0.0006654711747865426,-0.0012234852648095019,-0.0017139120142617282,-0.002193460203512181,-0.002735419333537724,-0.0033463082987231487,-0.00382402422100383,-0.004227240719356008,-0.004634570106868504,-0.005029404952156716,-0.005460897172770294,-0.005952818709088993,-0.006380296051063632,-0.006769388266342729,-0.0071413375855405555
-0.008341257296205567,-0.00807876513003955,-0.006602649224522041,-0.003835960094795384,0.00021460946743897825,0.0035694660280128337,0.005745364516625141,0.007053691560277067,0.007651884227281205,0.007822181537304804,0.007795220450424396,0.0075281759379058795,0.007126784000139014,0.006706861852988355,0.006170339932552104,0.0056091190133984005,0.005194047475687004,0.004940721290274999,0.004636519117425825,0.004131571417820676,0.0035352733390290503,0.002906179024418557,0.0022129171686595486,0.0016679291257222619,0.0013581777008388279,0.0011353212758558823,0.0009418697208850582,0.0008080494106891495,0.00083125614107942,0.0008486163287754685,0.0007043945328431291,0.0005158778187148928,0.0002465717138636015,-0.0001322401593875865,-0.0006257423864929808,-0.0012008448650322927,-0.0018605029887553684,-0.002492406379401949,-0.003111563310086175,-0.0037290105050773936,-0.004334846071118736,-0.004889294487942305,-0.005393492295411783,-0.005849020431271718,-0.006243888885743233,-0.00665123060207035,-0.0070800834242310245,-0.0075044830849092335,-0.007887229953155786,-0.008206631142579277
-0.007680803913196654,-0.007441738644455061,-0.0062737061414247465,-0.004089972645643027,-0.0007791188825088328,0.002222611722190064,0.004360037323478627,0.005587003543597202,0.006286482120337264,0.006646121394287235,0.006781545982485263,0.0066964634878482684,0.006404114889862448,0.005941585283949604,0.005470419414247064,0.005063799821277377,0.004763418407002501,0.004531845783967123,0.00425049631681261,0.003787849491219143,0.0032579637084329768,0.002717743106288204,0.0021935518066293763,0.001599362486811026,0.0011313044347965244,0.0009652342371608059,0.0008039395669320995,0.0007447731489278562,0.000863449320726255,0.0008265267145603889,0.0007255143798790473,0.0006414122495613369,0.00039932310416176974,6.786716219836689e-05,-0.0003023940241137725,-0.0007864109018252966,-0.0012989029002215264,-0.0017990209666077762,-0.002370627731445408,-0.002976706029155182,-0.003574050304425241,-0.004109763586803445,-0.0046483408912201575,-0.00517525664115589,-0.005536657464361671,-0.005947876157431562,-0.006445664091078506,-0.0068266610043598705,-0.007162375370792338,-0.007489771370479268
-0.00731111225603732,-0.007076978035180863,-0.0056293755956575925,-0.0031305950547210262,-0.00013579524725119643,0.002465543428231035,0.004147822149947154,0.005271873572110418,0.005965015875124949,0.006245370745560657,0.006357599116309294,0.006307241333598111,0.0060122369149146655,0.005706099444884219,0.005383301325129021,0.004981349904865078,0.0046294243442972175,0.00430172640521405,0.0039536064355313915,0.0035982615106296065,0.003108618731951852,0.0025319825157807674,0.001938426620441796,0.00132899685019184,0.0008759628706316413,0.0005856062318166575,0.00036027697380708947,0.0002384392503007922,0.00022930198356893973,0.0003217409318998679,0.0004103268461232034,0.00031835006489401135,0.00017293554226005994,5.120814935384437e-05,-0.00013883739687913253,-0.00040128483280065864,-0.0007728522410374866,-0.0012970089282571995,-0.001861350248861905,-0.0024048292944322883,-0.0029561797515731767,-0.0034929911831526493,-0.003962460843599277,-0.004446343199946912,-0.004992584549097323,-0.005446062461751203,-0.005843915763687949,-0.006260084888444553,-0.006629574533782426,-0.006933395203807791
-0.0073477140502212004,-0.007255942059056427,-0.005856177937824759,-0.0032709633787752993,3.8378707486031284e-06,0.002730606926579166,0.004293281995201428,0.0053158146732249605,0.00599957088447663,0.006310980989239339,0.006336355159022327,0.0062233637823613215,0.005996510036481206,0.005600330339430757,0.005142569693968562,0.004741073562780897,0.004307607914669519,0.00386928314877434,0.003453414154817572,0.0029786173364995017,0.002460629322567339,0.0019339988189618303,0.0014288900239068534,0.001032495744518972,0.0008435096622262714,0.0006710722933519343,0.0004943264828038272,0.00044239567071085355,0.0004325617778767383,0.00042015342661317695,0.0004429249158639992,0.00040573412256135233,0.00027534923060176943,0.00014952356182971265,-6.922458338922125e-05,-0.0003972753368479442,-0.0007507714562429387,-0.0011879011669171347,-0.0016976761300740953,-0.0022365769767651376,-0.002752903779282144,-0.003256355853424458,-0.003778271963716174,-0.004303513193677698,-0.0048236096080107125,-0.005285219100494695,-0.005698186332666461,-0.006105535261678625,-0.006474151790378155,-0.006792432707078195
-0.007776007572931252,-0.007508785137905855,-0.005973577828668112,-0.003306034744893897,-5.1205805303522565e-05,0.002688444629230163,0.004444586101937647,0.005555758700916647,0.006246102621177361,0.006578260834821652,0.006721566463563837,0.006658081208680828,0.006286207226319831,0.005833019265676978,0.005468241281818666,0.005076892455662502,0.004663374144087177,0.004347304215846551,0.003986110074497715,0.00350684795118754,0.003006387688266418,0.0024478086892954208,0.0018803011412172957,0.0014787967341688842,0.0011272508781254244,0.0008199083545724001,0.0006529608198294369,0.0005927292767319904,0.0006270554863048634,0.0006753212776672518,0.0006581230731598732,0.0005997177412506698,0.0003928259805749196,0.00013417177925366213,-0.00013372359207214593,-0.0005449961043954476,-0.0010270041016029268,-0.0015157624416819865,-0.0020540672273232936,-0.0026296700703334944,-0.0031900479529375554,-0.0037022544666857086,-0.004269214285954913,-0.0048362812798616985,-0.005274461996038814,-0.005722401784322095,-0.00621626394605599,-0.006696197858689631,-0.007127625901681402,-0.00749684750073304
-0.00757204106407738,-0.007471562820550095,-0.006273186493555657,-0.003926373320405799,-0.0003552644910968016,0.00280165697870639,0.004740817339666132,0.00589467609314077,0.00658943922567835,0.00697329172445179,0.007039198134442381,0.006863876639840229,0.006565078372542896,0.006172031922203683,0.005634939965754186,0.005061557909136104,0.004613951872251645,0.0041271010528927685,0.0035821874252366867,0.003068073837142176,0.00254083994493851,0.0019463071174023014,0.0013076300769892086,0.000774119578396972,0.00046491988416462877,0.0003067099482787662,0.00025929992538632735,0.000302838990393857,0.00031240430499037986,0.0003459356522677895,0.0004154258389804431,0.0004463954394506404,0.0003971183734239772,0.00028035190084286826,2.769504851535705e-05,-0.0004332740534218266,-0.0009184275448882674,-0.0013904919452419266,-0.0019285099311677693,-0.0024934236883594196,-0.0030411280590909003,-0.0035546290801353312,-0.004127910680476771,-0.004707001266900845,-0.005219823369833948,-0.005698435101545698,-0.006166641296021642,-0.006595421003154699,-0.006994349472706276,-0.007376313424307494
-0.008012158667133961,-0.007914592757284723,-0.006558892157303925,-0.004007386635586439,-0.00042949335132644784,0.002848353174830299,0.005091131640048506,0.006352892704316144,0.007077833436732135,0.007537674390709001,0.007628443584062445,0.007455523487802669,0.007130532449825696,0.006628841600374967,0.006044744485847206,0.005540274575401409,0.005067668023582262,0.0045262245473666075,0.004018652473164804,0.0034636942556384217,0.0028303823175724295,0.002198493305551468,0.0016177508932689632,0.0011227246933856534,0.0006850052921099489,0.0003695584149919129,0.00021541042887264378,0.000176262900428764,0.00017622356257393216,0.00025953056755609436,0.00031536384972382134,0.00030514934493177086,0.00028886057650556464,7.821600114682119e-05,-0.0003113022669367537,-0.0007119392632144925,-0.0011491175000365094,-0.0016290191781626693,-0.0021250769319906054,-0.0027061714785056013,-0.0033311050248251888,-0.003917299311387084,-0.00448515739750758,-0.005042192725444698,-0.005588541114326618,-0.006091883239056996,-0.006562325955229091,-0.007002785824078301,-0.0074358255335428836,-0.007873712734564334
-0.00783209503137753,-0.007618202489026432,-0.0063026763236856105,-0.003911917181377965,-0.0006131870393972577,0.0025166342601017824,0.004719219906333438,0.006119982763319099,0.006927430779435394,0.007391246738847821,0.0075323848622874025,0.007422337865968291,0.007143995330660214,0.006709419971649366,0.006213816901345261,0.005686582671905152,0.00507435775176872,0.004462283128824879,0.003844619333367951,0.0032967384063328498,0.002774276960045849,0.0021293764789408,0.001489257842866948,0.0009500983302400414,0.00043451607352725007,6.310858346279584e-05,-0.00013873337522127266,-0.00025290311897016316,-0.0003178800036448167,-0.0003340912419932553,-0.0003459668846502691,-0.00035447341184594125,-0.00036193631373044135,-0.00041442186897480747,-0.0005431514813696099,-0.0007337498468800866,-0.0010369250608467224,-0.0014714159985156723,-0.0019082686244154845,-0.002289749446006138,-0.002808256499657113,-0.003459015438507377,-0.0040800059717409996,-0.004695409481176761,-0.005280964512310109,-0.005838356885047432,-0.006353900457386609,-0.006757014406238444,-0.007129472209835916,-0.0074981393561590545
-0.008041269279081976,-0.008060573345833759,-0.007031814918905735,-0.004868575535112916,-0.0013311872845158444,0.002393225878729287,0.005419788254032406,0.007106805034654723,0.007907809172390635,0.008293531102961384,0.008439447312585726,0.008383334731020032,0.008105710082098904,0.00755014830381828,0.006861953080055637,0.006171636206518919,0.005482388726875235,0.004823323774455981,0.004188048610086432,0.003495503221555879,0.0027503207095433847,0.0020505690123396926,0.0013950015618554958,0.0008024353002043108,0.00036240104902191553,3.667428112299079e-05,-0.00018323251834893357,-0.0002989790467987259,-0.0002620488204667544,-0.00012678742350945958,-8.975747405787915e-05,-9.193792701245474e-05,-0.0001512083935050423,-0.00030230232469110485,-0.0005621862915586338,-0.0009454810251123998,-0.0013021147593777027,-0.001668500423828115,-0.0021465210132173003,-0.0027908108449446896,-0.0033948279855256893,-0.0038601613756825684,-0.004478246358611326,-0.005135510087110088,-0.005668712580344893,-0.006100611728009457,-0.006491222355154626,-0.006957943794682659,-0.007376421777537059,-0.00769930188577055
-0.008081561295493426,-0.007968065633948383,-0.006893438019113628,-0.004747969387441701,-0.0013543431010091568,0.0020796621771633564,0.004779044616492496,0.006299766319945247,0.007141326329726491,0.007577323524004558,0.007711075784318684,0.00757631466742124,0.007278032532535273,0.006912820634722424,0.006486543895843509,0.006037029859921857,0.005562698743850317,0.005072843375984858,0.004614154447180714,0.00410466180002242,0.0035508481362720966,0.0029496530870047628,0.0022479124212529586,0.0015878356477332534,0.001082622129835294,0.0007668765944915601,0.0005441381958232456,0.00041845496226593855,0.00040969514685125497,0.000421456569996353,0.00036207844484633777,0.00028690682527888415,0.00013490291053730455,-0.00015128043937779907,-0.0005184457036925285,-0.0009610520163885679,-0.0014546012550939878,-0.0020182285864664006,-0.0025697093324256823,-0.0030925875234280795,-0.003676586277587268,-0.004247346390696613,-0.004766797246236559,-0.005284424688973967,-0.005774085202062527,-0.006194149988434847,-0.006611348999684546,-0.007074221200146655,-0.0075094986054353476,-0.007895743401593363
-0.007718608779388904,-0.007695383761627065,-0.006687030727648263,-0.004467093287681529,-0.0007149895718085984,0.002629659203233792,0.004867330190147588,0.006111882509681216,0.006861944005639728,0.007246553502720028,0.00731954467211037,0.0071371418728234486,0.006754115137783822,0.0062678009095858776,0.005686062438131228,0.005119638554121914,0.004699890546250847,0.0044281836517372,0.004100389787202862,0.003565374261608611,0.0030184847446913096,0.002431831899445264,0.0019008903702144697,0.0015142533844844023,0.0011910045556932365,0.0009502279593534983,0.0008254376655029112,0.0007835491601698628,0.0007966264084777464,0.0008004651219780116,0.0007621737434435586,0.0005979713444653415,0.0003225671460460715,-2.607533819821333e-05,-0.000446310546030702,-0.0009198080480215015,-0.0014437091869522825,-0.0019939015073920504,-0.002577967209373383,-0.003195928811744583,-0.00373994325445345,-0.004212077065208316,-0.00466815973057487,-0.005143791471568851,-0.005657763921060535,-0.006080295015482989,-0.006418153935816335,-0.006821190472959673,-0.007202312558028182,-0.007518890448951808
-0.007443047879262272,-0.00748620712714988,-0.0064363082709744945,-0.004141988977160136,-0.0005367823531554098,0.002439789887634933,0.004399746089371095,0.005520394887059193,0.006199701219488069,0.00651157688455597,0.006501624008146482,0.006305264536664882,0.005936443231509155,0.005456584290534522,0.005018902153981433,0.004702586902442978,0.004467768897678474,0.004210563394021855,0.0039365078844303585,0.0036133679581681465,0.00320638478842026,0.0027210381693755473,0.0021766586657738403,0.0016545982242413704,0.001376767714856456,0.0012156581432943236,0.001089255701731876,0.0009687098487229275,0.0009427698784894714,0.0009575084849950986,0.000889069326780857,0.000704995398193096,0.00042146053741076863,5.113582012630102e-05,-0.0004430169970058895,-0.0009803935525929041,-0.001538084389535479,-0.002195227073194644,-0.0027735470555035457,-0.003240314903447639,-0.003684184727228153,-0.004144497942694371,-0.004586931559421482,-0.0049589913274196784,-0.005300591213947168,-0.00567587215852907,-0.00610074527209825,-0.006445540541102932,-0.006753886136897321,-0.007057608036875871
-0.00609470214035344,-0.005907520826116276,-0.004420051384517849,-0.0019244669277229901,0.0008454917020321967,0.0030021040767227104,0.004352790616029829,0.005085641199703206,0.005470975662320493,0.0055953391781157335,0.005462848978931236,0.005188612081445114,0.004822892081392177,0.004426609453724183,0.004017232269884196,0.0036840254324648023,0.003468357757736717,0.0031993731458285894,0.0028380266316110634,0.0025009037429238375,0.0021813880667723145,0.0018100092296301946,0.0013752362970130484,0.0010248089682699199,0.000807126923287016,0.0007078862251675749,0.0006641776176634893,0.000733859469285287,0.0007976896167550579,0.0007243616896922606,0.0006016161448488524,0.0004311722299887964,0.00022878771831889115,-4.3648137824920794e-05,-0.0004001223058795185,-0.0008188290504050403,-0.0012536124707215736,-0.0017109954614283357,-0.0021397656930708144,-0.002570249833006572,-0.0030273097409587372,-0.0035094836158624807,-0.003950942511944892,-0.004330940201924305,-0.004678822658244141,-0.005006700070681571,-0.005332316153650794,-0.005646458317608016,-0.00595168608787057,-0.006254794042588906
-0.007408342754461738,-0.007122208688339136,-0.005498124051932134,-0.002758761454738294,0.0004930787435692657,0.0030404377818069746,0.004548428086986624,0.005556150142598408,0.006151336106148394,0.006380401760379134,0.006404913598975902,0.00626323779444759,0.005947718974998025,0.005470244176140592,0.005009453313173061,0.0046406673135536815,0.004284621089688919,0.0038987047969106917,0.003539288301713036,0.003082480697736173,0.002454409787240368,0.0018775415401093413,0.0014586439921388766,0.0010122786511320315,0.0006433227718894992,0.0005552596087634391,0.000496510534015041,0.0004891742651587926,0.0005738091601702631,0.0005718683157487545,0.0005349980435877242,0.00041342024758772626,0.0001701874357154048,-0.00016540381799141506,-0.0004861909916680282,-0.0008378827039731071,-0.0012895723337186978,-0.0017873659067582054,-0.002352201540999247,-0.0029751751395690885,-0.003570637522145221,-0.004073008480100913,-0.004491954137694092,-0.0048839211378074775,-0.005356567073706053,-0.005822892769728723,-0.006252349465316415,-0.006666796866481518,-0.0070032198744514,-0.007235010801127459
-0.007662774643600431,-0.0074517808756423085,-0.006086515509361305,-0.003580103451690489,-0.00010595402796548942,0.0028190126345450203,0.004744042301391315,0.006002392046121316,0.006663292749759209,0.00691069731140284,0.006986533057502927,0.006811340753951425,0.006473924772602126,0.006082689130684253,0.0055680819815022865,0.005109388201884329,0.0047725419615426545,0.0043761196110081975,0.003980239370136655,0.0036121070527450677,0.0031485595074527786,0.0025776571318291267,0.0020098091409385998,0.0015539073093701265,0.0011421286612061515,0.0008296528854010363,0.0007684343558781736,0.0007716252421125448,0.0007225215087816369,0.000756226171977812,0.0007105797277229532,0.0005490852305024714,0.00034992732611575364,4.431729425719658e-05,-0.0003968607022136454,-0.0008391121335352024,-0.0013298077576169654,-0.0018892584362494433,-0.002425628134893573,-0.0030116249975211448,-0.0036202180751894577,-0.004131381728206672,-0.004599918659353551,-0.005075484309767442,-0.00557116162953957,-0.006027132254300594,-0.006422673406702377,-0.006787607847091503,-0.007153406530285372,-0.007532649779812845
-0.008002626848935565,-0.007723379671460934,-0.006590804956729047,-0.004463429035938288,-0.0011259842359533255,0.002122706712150759,0.00438835111738258,0.005696336544634226,0.006510342190706633,0.006976230553183166,0.007156739195211326,0.007089168155744296,0.0068497588285468015,0.0064981984252920596,0.006060567454889581,0.00562525987770908,0.005256900012774205,0.00493061926871142,0.004606580726823169,0.004176343774300139,0.0036256180074626435,0.0030171256047361087,0.0023797254017804744,0.001821792075126548,0.0013552477703729232,0.0009407508784476538,0.0006859445520058869,0.0005975065148835151,0.0005631735163577967,0.0005911274318317083,0.0006019907726249395,0.0005019219211016787,0.0002832838618555847,1.3537979541230994e-05,-0.00025877903874906114,-0.0006412053831308061,-0.0010723569006719142,-0.0016005496297434375,-0.0021968201959302732,-0.0027693676139815926,-0.0033875490726092026,-0.003984335650762126,-0.004482999965464692,-0.004933672841416975,-0.005415248376558331,-0.005901984403152516,-0.006346209536412883,-0.0067765784456492225,-0.007211929856173059,-0.007645664542440007
-0.0069252633353133145,-0.006696241271446841,-0.005431935268788987,-0.003143155952891071,-6.219542985636884e-05,0.002390052735845779,0.003917394696259315,0.004910080958696784,0.005558123013167639,0.005873597013347772,0.005927121266562065,0.005774899627595004,0.005468363968786069,0.0051275624783373875,0.004729325382426679,0.004334861857797672,0.0040421797367846835,0.003879324168241064,0.0036513746291209547,0.0033127681467564596,0.002947745400655442,0.002465471517466238,0.0019448676357342613,0.0014918056141785233,0.0012113347186752665,0.0010895934780147506,0.0009322919610483695,0.0007712265426871908,0.0007402340903963252,0.0007198020531013024,0.0006800711177179276,0.0006101060041643067,0.00046489926552984985,0.00014394963014570947,-0.00024633649561997973,-0.0006235886283506057,-0.0010236569413828837,-0.0015351426032461871,-0.002055810375725194,-0.002601088686707753,-0.0031389871274537014,-0.003622196797338303,-0.004031327139333931,-0.004402016761524797,-0.00470406232893272,-0.0050051329520585525,-0.005381000702718273,-0.005804456407730028,-0.006199829405925622,-0.006533038881684187
-0.005867116639025404,-0.005515959300615426,-0.00415039513541798,-0.0020715002277784406,-0.00010675881754959002,0.0014992006121786973,0.0027591786130638533,0.0036801778358929033,0.0042646067289126245,0.004569445668453847,0.004584628328587294,0.00441385093299977,0.00415043635148812,0.0038086760899149917,0.0035434186187694333,0.003384685527121397,0.003335806849921583,0.0032582214511597918,0.0029803625591968584,0.0027209804989296233,0.002458094335166195,0.0020421379305620643,0.0016422104288904974,0.0013541611515891562,0.001135823638390726,0.0010154440201359978,0.0009713453310059444,0.0009672050289789089,0.00090488949906974,0.0008372638826809474,0.0007639170962102321,0.0005947023535560717,0.00037261568204829075,0.0001328329762313514,-0.00016771493739490924,-0.0004905587668236485,-0.0008671914782250631,-0.0012115107967673275,-0.0015238150213578406,-0.0020058681701853945,-0.002520361003938136,-0.002937312198113072,-0.00332961492365701,-0.003694239561616759,-0.003971770703782431,-0.00426533903379255,-0.004634171572323284,-0.004966775174119122,-0.0053017597178722144,-0.005669540991192478
-0.005414694695677884,-0.00527257783179097,-0.004354039811557434,-0.002714201290801161,-0.0005790051220994388,0.0012701126173714878,0.0025510756028642267,0.003549894894038479,0.004187240390461944,0.004462604029836261,0.0045047236184559405,0.00436646159784331,0.004146410919733404,0.003874718006882413,0.003568493356845466,0.00331905439888235,0.003192292940305642,0.0030692029022898132,0.0028587600409262824,0.0025796270999569187,0.00224639310772784,0.0018650122006727667,0.0013854146365421278,0.0009545190778419428,0.0006808642902962301,0.0005148602898847889,0.0004116974793670294,0.00038625937724977446,0.0004181793044350842,0.0003905677101813857,0.00041756310832368994,0.00043861141700352323,0.00036334634782609124,0.00016310643740980759,-0.00011643705677831581,-0.00034077323664231566,-0.0006529157146643687,-0.0009936506562562317,-0.0012870397154701042,-0.001647144866980261,-0.0020379735357282567,-0.002433567543277248,-0.002801735891773741,-0.0031693952671760714,-0.003580392964633326,-0.003965794274888852,-0.0043068090115576975,-0.004592317339212369,-0.0048489009185732745,-0.005086444771554072
-0.007160138990913823,-0.006787111669966447,-0.005187074886598651,-0.0025171793055971986,0.0006318191279596165,0.0031945074548477828,0.004660067477069514,0.005628116561332872,0.006262752726347541,0.006559052329250891,0.0065278448132824254,0.006259854776000274,0.005902879133026586,0.005481972490396626,0.005032692993491114,0.004578852252371239,0.004062522394904322,0.003526747002376573,0.0030274943782676775,0.0025024197791182466,0.001980017089888558,0.0015370546374451118,0.0010722176428747347,0.0005871775456800703,0.0002420632793068107,0.0001189109643550831,0.00015141525276524289,0.00020418876985347644,0.0002430830340314125,0.0002965938965854274,0.00031708037376573534,0.0003029073750497307,0.00021994667174344922,5.1702312794052426e-05,-0.0002166988059225062,-0.0005439529922492985,-0.0008907161849060621,-0.0013123767661007485,-0.0017786602113193197,-0.0022875732732359952,-0.002841293405853849,-0.0033842928595516904,-0.003943302941144203,-0.004505121395242031,-0.005047323596364851,-0.005514512638064031,-0.005909597216076527,-0.006265012730122595,-0.006620631184647053,-0.00698968270361167
-0.0063451896860760686,-0.006004250977565442,-0.004542610016540246,-0.0021782495386530668,0.0004317314902183758,0.0024608619280909565,0.003782391649000219,0.004529494458589804,0.004992719818763598,0.005226213648001644,0.005169917456999339,0.005004194524612509,0.004723912545531443,0.004293260051254813,0.003949009284379644,0.003700227165141994,0.0035418271221130723,0.0034307927988222035,0.0032367363795330773,0.002952240125084897,0.00254751362673113,0.0020484627418893577,0.0015981208544454256,0.0012649132552310831,0.001018853947270218,0.0008413084312630151,0.0008145041428536557,0.0008347468105249109,0.0008343179341796674,0.0008733461836799209,0.0008530442560908284,0.0006966251431157085,0.0005568520786839376,0.0002912003365143982,-0.00015027815005613104,-0.0006055570776617133,-0.0010066711294487872,-0.0013985402354805441,-0.0018939914107894416,-0.0023571589719381713,-0.002780076755434696,-0.0032182295142365687,-0.003610691144886828,-0.003929106462645006,-0.004264134516100711,-0.004627142030532794,-0.004995452129467354,-0.005285994196281992,-0.00558806189726443,-0.0059383222442004665
-0.004660397477765302,-0.004318553127860151,-0.003344511423697531,-0.0018275840380386705,-5.854737835515761e-05,0.0014821085036260816,0.002622877404599655,0.003371732209751159,0.0038204169137806476,0.00395788346796286,0.003851382623360382,0.003707514842140456,0.0035092941502359557,0.0032269309856186525,0.0029729577775009495,0.0027812420234063365,0.00260817166585797,0.0024419025056205915,0.0022699243813965766,0.0020550773022749436,0.0018564038717649941,0.0015845680895828777,0.001170158802120552,0.0008481014725872647,0.0006207254605865506,0.0004740033995752731,0.0004623602768259041,0.0004876865425199072,0.00046307325930389296,0.0004728044450399675,0.0004841384179370572,0.0004362006137651552,0.00033181994558921616,0.00018572137184444078,-6.8599973850609e-05,-0.00040056125679581716,-0.0006981326790327748,-0.000984978018580928,-0.0013337118231431504,-0.0017209975823978272,-0.0020987339405639355,-0.002395176943905456,-0.0027071247348797838,-0.003051533385504217,-0.0033012190071022088,-0.0035419205102830524,-0.0038515379373521624,-0.004207559534373228,-0.00449247399432999,-0.004668078806172541
-0.0051299421575286,-0.005174509817903161,-0.004938986218561118,-0.004410924173506135,-0.0031592049786803855,-0.0008607477094654643,0.0016877769529619923,0.004409001160508463,0.006660649331936546,0.007916192082431862,0.008479151295673521,0.008645934572347677,0.008576704187996213,0.008316906748018566,0.007899406365454003,0.00738807847651034,0.006845147606766216,0.006221275466141033,0.005448948864693019,0.0046441961984202435,0.0038334601941366377,0.003021868389198996,0.0021990688479671455,0.0012741287715688917,0.0003529881619444952,-0.00044981510352725144,-0.001092754771142118,-0.001523683180593714,-0.0018214390675802216,-0.0020124292841266103,-0.0020891691717253363,-0.0021047761187469195,-0.0021399358715928295,-0.0021557865446123438,-0.002180004093886772,-0.0022439655340330683,-0.0023259756860959766,-0.002466624453366909,-0.002644457318776224,-0.002822030271079579,-0.0030754957819728633,-0.003459688352856624,-0.0038312407377653437,-0.004180742660447241,-0.004553768877759349,-0.004855748425569205,-0.00506852953061572,-0.005219334726054173,-0.005352734451549952,-0.0054767404098685964
-0.0064191821398999725,-0.006354764768903087,-0.005077046502292444,-0.002651834455940335,0.0008990845375160548,0.004007503419028825,0.006285965121684126,0.007602232596658149,0.008141653262873782,0.008240257084193472,0.008169128223120508,0.007946585751924161,0.007662645836421194,0.007294451856861086,0.0068053160104814174,0.006320032144325621,0.005881312010718178,0.005385779400290709,0.004737510446849177,0.003951474067398168,0.003028567028268966,0.0020506645251139387,0.0011410924465705945,0.0003959486394673559,-0.00017064706856736664,-0.00057275939068047,-0.0008043077784267304,-0.0008497876201575808,-0.0007955542162666478,-0.0007162910030402169,-0.0007312215167897698,-0.0008251496659105413,-0.0010186456934646929,-0.0013229831968251385,-0.0017082737030829965,-0.002166976035848794,-0.0026937577528289578,-0.003246571032798745,-0.003789881544797881,-0.004247209640478139,-0.004702007714502354,-0.005224050841863195,-0.005648213356354564,-0.005941638451266229,-0.006178961150050091,-0.006335938259862385,-0.006413791796302092,-0.006455351324616561,-0.006498639464801432,-0.0065586062413394135
-0.006872129251749505,-0.007025916007748496,-0.006049792826050015,-0.0039033408646149464,-0.00035415061641541547,0.0034733412814135526,0.0056083191072258684,0.006730342584580015,0.00728023759517382,0.007650173477875281,0.007828859358368459,0.0077133134528264355,0.00750438937164645,0.007271162596487068,0.0069257936783808215,0.0064219286931234435,0.005854252615171418,0.005346466694650817,0.004843256884871957,0.004276979457612281,0.003627797174247252,0.0029124856144358835,0.00212280165104431,0.0012498112115587065,0.0003804077560337872,-0.00033366830980702196,-0.0008719787848289651,-0.0012718829017799894,-0.0014829374682037988,-0.001519518401606631,-0.001443911090102288,-0.0013314281221162613,-0.0012309164274092019,-0.00114010649394444,-0.0010580736873535043,-0.0010647535815787887,-0.00120557469867646,-0.0014430948830620439,-0.0017832494405354371,-0.0022334705243671213,-0.0027344151386025552,-0.003277021902910281,-0.0038209841283178957,-0.004386880661806566,-0.005008823578159268,-0.00562063545846735,-0.0060818940345082565,-0.006360258234843441,-0.00657156384625078,-0.006734497204155655
-0.006753001927084743,-0.006834042004708915,-0.005999323033899771,-0.004176312643156804,-0.001120921106016793,0.002570839731659009,0.005414179508540083,0.007110046160124178,0.007900365448248025,0.008176907614755615,0.008303855084035597,0.008310379379921623,0.008097055841902588,0.007760385973688742,0.0073818849530525275,0.006885974920775479,0.0062886737024918605,0.005668425824983873,0.005052963490240793,0.00434975614375256,0.0035998412557339435,0.0028053574035714684,0.0019354386659265342,0.0010363671483680308,0.000246229937990186,-0.00038828748309777784,-0.0008199140749276029,-0.0011425985353923514,-0.001340204316051571,-0.0013264099490349368,-0.001212926873232117,-0.001152818734347526,-0.0011528998401316311,-0.0011854606339165073,-0.0012728544003808644,-0.0014068409548634224,-0.0015920943066610013,-0.0018572097531010024,-0.002198341119702495,-0.0025897548935823124,-0.0030763584906390545,-0.0036686797382979174,-0.004243083912339619,-0.004766974951991689,-0.005296107861859708,-0.005710496267703939,-0.006080434849034595,-0.00649712074435195,-0.006799122902463884,-0.0069543654111677
-0.006951682369024278,-0.006801925284517553,-0.006204275365384537,-0.005023607149943598,-0.002973257964240166,3.8709816514900504e-05,0.003518236660389934,0.006232844339231347,0.007780311995153,0.008532221587335421,0.008859045985691013,0.008902382829342463,0.008769963323222864,0.00854177229720738,0.008107822646136307,0.007546269294414314,0.006969379697313662,0.006384459734010297,0.005771529882173082,0.005075050208757157,0.004331506183574228,0.003485157582240692,0.0025143443997824623,0.001530572364004133,0.0006428386215981425,-9.435150731898442e-05,-0.0006930135234414219,-0.0011129333708910743,-0.001309301259439997,-0.0013963408157571578,-0.0014373703277965801,-0.0014286930719347992,-0.001387415964168355,-0.0014093576336652463,-0.0015464738970781078,-0.001708768969735814,-0.0019340300076940314,-0.0022560128930622677,-0.0026814313831652497,-0.0031871108042416632,-0.0036763126798217633,-0.004152910471522009,-0.004719999944117048,-0.005283785268167281,-0.00574124564213369,-0.0061448459116196594,-0.0064676090472716025,-0.006658561133396146,-0.006849265232281311,-0.007074577745146072
-0.006659512614118708,-0.006636239688812956,-0.005526433804766285,-0.0034415887469873914,-0.0006758189715363607,0.002121361960083599,0.004464321577455203,0.006061384623323723,0.006881939017924912,0.007219589730080472,0.0072561709997385985,0.007068151732102016,0.00674988660453199,0.006340109027938884,0.005877285113868556,0.005408896455271825,0.004974474283416837,0.004522657479667907,0.003936952561898728,0.003323010891327808,0.00275497666001512,0.0022608971781990688,0.0018881520141085374,0.0016032246886069333,0.0014582065450123266,0.0013700997900769588,0.0012935910652702182,0.0012629723502723762,0.0011483027774858562,0.0008239947514893813,0.0004450379628866436,4.2687583370439446e-05,-0.0003648868242094851,-0.0008403127804966637,-0.001368277082582182,-0.0019270119787363614,-0.002511040854189278,-0.0031061042348693594,-0.003635559979497332,-0.004113917148906772,-0.004562602438974546,-0.004901927943531338,-0.005128805743517583,-0.00529397003579098,-0.005556576143732152,-0.005865151149769765,-0.00610665033033952,-0.0063736777739148605,-0.006596918191197052,-0.00672795788885938
-0.00680230969563342,-0.006756700263756085,-0.005638499414624799,-0.0036519132862813646,-0.001280302024906566,0.000701303958158085,0.0023014922483117397,0.003607672851062652,0.004631007855993214,0.005291482673498307,0.00570331644421602,0.005842050169221894,0.005701180198019394,0.00554543854791871,0.0053338612505254655,0.00500740936921113,0.004627815634863925,0.00424812038448107,0.00382539284718033,0.0032896277805171672,0.0028750766363343358,0.0025052180924649485,0.0022032932061226596,0.0020636959253185812,0.0019258233880479804,0.0018332077360480752,0.001830221844568404,0.001807808428235785,0.0017317264205339495,0.0015498562758613612,0.0012496950566062634,0.000791749199924627,0.0004017621410147823,-3.247188983284875e-05,-0.0005687771529918551,-0.0011473629185316451,-0.0017187442092411016,-0.0022515562004410588,-0.0027287937697188717,-0.0031261482799346926,-0.0035365678320880235,-0.0038966506165116726,-0.004152527674946937,-0.004513382957274996,-0.004879059251326057,-0.005166665222964192,-0.0054772620681430165,-0.005807631909991243,-0.006133385980336631,-0.006434409988244327
-0.004146152903418613,-0.003859720986218668,-0.003177919571684835,-0.002076108595515325,-0.0007128182643016876,0.0004070533872356498,0.001442702349392216,0.002350312689581214,0.003037536559173436,0.003456726071952112,0.0036173401008727157,0.00355369759007851,0.0033572711699960687,0.003164839650185884,0.0030169768141725026,0.0028835829718907384,0.002718944908850846,0.0024649347506078677,0.002074574065372161,0.0017189094678756686,0.001499961470889913,0.0013492812557181653,0.0012383419394174427,0.001174391153124944,0.0011803458090056047,0.0011666508622760485,0.0010305421063158734,0.0008756499507909922,0.0007951864339910609,0.0007927000498649001,0.0006764623217785369,0.0004809343791860962,0.00025167402635874257,-8.59256882219343e-05,-0.0004114641108875972,-0.0007005588533043879,-0.001000133131225542,-0.0012970211946443705,-0.0016424448361353318,-0.0018652624728004612,-0.0020505773394653686,-0.0022594429462294368,-0.002429410836134671,-0.0025541352302531524,-0.0026922425473741435,-0.002900090957297985,-0.0031318543335473546,-0.0033617636834982036,-0.003617068802694675,-0.0039226992572049795
-0.005511666600252193,-0.005331316673295387,-0.0043088375006309935,-0.0026886365049996713,-0.0008297256512945631,0.0007993918678373048,0.0020230897271962408,0.0030390021744321166,0.0038487214367157203,0.004296475488763558,0.004463356527606094,0.004455227782406124,0.004463715762099591,0.004367034020882855,0.004118844998059358,0.003915883899766676,0.0036598532887783626,0.0032877076303695803,0.002905972874728285,0.0025336282781753183,0.002213143088027436,0.0019337721963987868,0.0017722812678573742,0.001714086639314309,0.0017903465393097006,0.0017703977696276404,0.0016250565992030842,0.0015459176484999312,0.0014716469133315485,0.001321737399182377,0.0010913675013291524,0.000773871079788817,0.0003685777213776481,-7.36394304993399e-05,-0.0005021333342134519,-0.0009539653698815013,-0.0014348260381973166,-0.0019313338316181202,-0.0023446010731679534,-0.002620507265419166,-0.002885473723132804,-0.003188495397429576,-0.0034701336607848225,-0.003719461564426709,-0.003932953104506712,-0.004115018706833645,-0.004376972144578357,-0.004747500916133514,-0.005101333687467448,-0.005336029033485794
-0.006755329429498384,-0.006552577092514431,-0.00568990425067546,-0.004259233095385029,-0.002511682586397871,-0.0007526397786561038,0.0009202608230760352,0.0024732595209990306,0.0038824941830507944,0.004984426797956122,0.005677082840825679,0.006178086092870671,0.006445848848407755,0.006478036845854624,0.006375801463271881,0.006172000047079729,0.00577986574961196,0.00523201131849744,0.004630581886633187,0.003938710944492203,0.0032209853834361344,0.0025568917923536848,0.0019743051242775635,0.0014072652731145932,0.0009539689830408714,0.0007259007574539312,0.0006365845324183566,0.0005760622281728039,0.0005405000538553603,0.0005966019954478078,0.0005939040826719895,0.00040028641914941415,0.00023690875919640944,3.202764192839573e-05,-0.00030472181334704313,-0.0006642733849501985,-0.0010874533430331604,-0.001534429927076324,-0.00195672260243258,-0.0024068130906744326,-0.0029036341684561,-0.0033723725825451356,-0.0038212250644964634,-0.004237292651787979,-0.004629167307458725,-0.005052704292257319,-0.005514730997442444,-0.005916319377156202,-0.006269004441129107,-0.006589812324526963
-0.006063958036737691,-0.006011497131083626,-0.005650695430762718,-0.004956621703219325,-0.0038611578253685747,-0.002500075613875565,-0.0010181072143010885,0.0004178050473390996,0.0016801352266812516,0.002781862026072794,0.0038100085493345285,0.004607619169391669,0.005140891474787114,0.005506855210916171,0.005637084938094604,0.005583883919250623,0.005447329606523254,0.005162922591052262,0.004684769606021066,0.004129399325994928,0.003511782552488392,0.0028359252405339556,0.0022194929049886587,0.0016787884195936958,0.0011674162066319118,0.0007436430711987448,0.0004872419159797865,0.000370274135124922,0.0003050849891010816,0.00022929579352403098,0.00021653033570049877,0.00022429361814676959,0.00019768520380292786,0.00011102206947660314,-5.96195453697777e-05,-0.000253465331066883,-0.00044049529917288954,-0.0007319500491778536,-0.0010919327989203495,-0.0013945324092465008,-0.0017840421207182611,-0.002232047047215519,-0.002649578646915533,-0.0030632466095280577,-0.003465373628112913,-0.003923814023760918,-0.0044163714401684205,-0.004867962307707511,-0.0052735005621649955,-0.0056325361582167145
-0.0066647818529065594,-0.006616467432077432,-0.006076310671128848,-0.005089523058345159,-0.003703927980485985,-0.00208166714291273,-0.0003834223455384293,0.001247554552831128,0.0026336554081382527,0.003774492778360734,0.004643103058641572,0.00529616423504419,0.005773862076662488,0.005998765937422982,0.005931074273268203,0.005739466516216719,0.005520860828282643,0.0052296999104552815,0.004782576069766809,0.004228301135953244,0.0036062383031163106,0.003014859136236972,0.002576531164388889,0.0022206244398676874,0.001912110322309086,0.0017226514342992575,0.00160219284744898,0.0015419454171461608,0.0014589804908753802,0.0013178991630978932,0.001180758313916126,0.0010308339920192973,0.0008590415962019864,0.0005624155925536314,0.0002465708907508675,-7.892772952784029e-05,-0.0005872448574623516,-0.0011562755344329276,-0.0016504361356727293,-0.0021465838233349853,-0.0026460971869075034,-0.003082257302412877,-0.003526389758560315,-0.004072524211531967,-0.004555887784738066,-0.004959834226024761,-0.005314984529988494,-0.00569301858632628,-0.006088823646746939,-0.006483122866084796
-0.010106256719973485,-0.009820572897578036,-0.008684807162150691,-0.006677128459148074,-0.004087718611400183,-0.0013846284531969257,0.0012245846835723746,0.0035444328970479885,0.0054562606625280525,0.0068455246363033715,0.007747861290637103,0.00840250729216563,0.008679243854104492,0.008656662730677231,0.008468511877104831,0.00810000702434811,0.007494405186503671,0.006745536804769133,0.005977012972519164,0.0052371967871245855,0.004691155674670482,0.004203812465756359,0.0038562131865946103,0.0036389309654350694,0.00349230836476883,0.003415673561229992,0.003230747125498253,0.0028899877916512724,0.0025038896191734664,0.002124956363222147,0.0015765140172930277,0.0009165694484963958,0.0002448720143312452,-0.00038827219497031664,-0.0010548371108397348,-0.0018461311893608883,-0.0026863829854618534,-0.003419658125721161,-0.0040612425794640085,-0.0046820366831501516,-0.005215207437300899,-0.005739066223160248,-0.006239177268356195,-0.0066796518535060185,-0.0071409198582509555,-0.0076335451538417885,-0.00813530716405124,-0.008583234603531158,-0.00907188425210767,-0.009609989819628573
-0.010266080292150584,-0.010007363764462068,-0.008899501384794848,-0.0069970062299213485,-0.004565623162899907,-0.0019899963909936055,0.0006456853394752853,0.0031384188025442477,0.005121532609328242,0.006567040058232094,0.007624778710466301,0.008300298068145933,0.00867050479586733,0.008837966808859721,0.008812660952843297,0.008586723419630881,0.008180311323438615,0.007602616039330384,0.006946558825973944,0.006154033810000319,0.005385510061320293,0.00474012921417566,0.004181830003572061,0.0037511891380781898,0.003444462241450186,0.003245278398424542,0.003119042835042042,0.0029430524894406423,0.002660626891942294,0.002347643898020296,0.0019932636441272137,0.0014311776336265883,0.0007741498122574714,0.00011844774786600243,-0.0006899786073992095,-0.0014574273163390655,-0.0021843573507084996,-0.00296140152962152,-0.0037140600471896844,-0.004322115961625633,-0.004924705357645535,-0.0055369012787652595,-0.006096524364922197,-0.006669562019867341,-0.00722150618482649,-0.0076441411195730105,-0.008138389184873423,-0.008679496697144459,-0.009150284171046656,-0.00959056338848242
-0.009755705585291423,-0.009715016652834762,-0.008868735345042629,-0.007223139596355652,-0.00495310403803593,-0.0023981213941381817,0.00027018019498736845,0.0027272421590327275,0.004754414258773411,0.006342412557146634,0.007519766788630993,0.008224934051462648,0.008654282431273702,0.008875028929790491,0.008934870023890637,0.00882187127091491,0.008477033103774411,0.007861317007376467,0.007123677125638856,0.006317747597239005,0.005414033525515646,0.004639880013586164,0.00407604976697787,0.0035620647420409614,0.003135086648718271,0.0029111857646197574,0.002713864688486165,0.0025131896337412633,0.002304522892285035,0.002068105300633298,0.0017149417464741384,0.001292336968889207,0.0007184352948520724,5.7177395920124964e-05,-0.0005980001508222985,-0.00129250109984696,-0.002038803490754694,-0.0027898455436740402,-0.00352066479954882,-0.0042081853098695325,-0.004785596891846579,-0.005399271181548866,-0.0059803107261716705,-0.0065222319431561485,-0.007008651835530689,-0.007478793784862837,-0.007967858522833732,-0.008463149108644697,-0.008950144853180455,-0.009396420441134565
-0.009957705606000816,-0.009504285297409026,-0.008086009766853159,-0.005937737765821984,-0.003382938586277124,-0.0007900762331313634,0.001703794513456939,0.003936333362508315,0.0058150693259806435,0.007137233253815735,0.007976236857337338,0.00850639769693334,0.008733523239227428,0.008866726693035306,0.008806424477487656,0.008515249889659406,0.007997289174662463,0.007330002375832109,0.006463350634911514,0.0056946346440433886,0.005070532975275283,0.0044538144073189255,0.003940169805374936,0.00358044170703293,0.003409824010007341,0.0032919732911755937,0.0031608695331627815,0.0029569403599249283,0.002568754800279947,0.0022063333907063267,0.001737207557867265,0.0011650270248443207,0.0005475413977800925,-0.00023998666962029221,-0.0010933021605385616,-0.001822616272503303,-0.0025911490659538184,-0.003354124768976266,-0.0040167670475964165,-0.004667298117790156,-0.005257873980395875,-0.005780192987271808,-0.006246965254338672,-0.006733514350329536,-0.0072727018131866945,-0.00780440641944119,-0.0083023779525763,-0.008786637706698503,-0.009235920471737059,-0.009618544940068868
-0.009813919591981463,-0.009487178389040528,-0.008129470666954464,-0.006033638057723315,-0.003512594905328068,-0.0008241563976624013,0.0016987388300183683,0.003841624868032536,0.0056107485447508786,0.006956561107816787,0.007989216758112174,0.008690390719357115,0.009092549140660688,0.009224475180160932,0.009027727127728686,0.008745849328601882,0.008335091850564604,0.00771579956471362,0.007025389954146787,0.0063326123719762255,0.005655358063881588,0.004949910257017679,0.004341567629748052,0.0038294442557901495,0.003365508743470439,0.002998347370644202,0.002689223095090033,0.0023380723677074093,0.001948927569431017,0.0014606125811822694,0.0010621173742789904,0.0005663562100727061,-2.712693609670518e-05,-0.000640624433665413,-0.001217019341442323,-0.0018659486198190204,-0.002530018018682711,-0.003204684996775106,-0.003883460707272487,-0.004484480359608552,-0.0050495105599212544,-0.005662684428414433,-0.006242370848950608,-0.006869394622700164,-0.00740591210134355,-0.00797325544022914,-0.008514371145915854,-0.009042841558391228,-0.00955531424757224,-0.010050000030878662
-0.008421587825713903,-0.007843652761677672,-0.006678509396150086,-0.004991064880606514,-0.0030370243925797015,-0.0009542606479148606,0.0011282956013952568,0.003079915000708637,0.004780254192840795,0.006121936499861347,0.007101858246911406,0.007706701822235421,0.0080541022679689,0.00827990965235164,0.008307174198044283,0.008117918990002198,0.007785769089323685,0.007225736316664217,0.006464885506737462,0.005620377770465835,0.004702707897444966,0.0038046725495214356,0.002964282568570149,0.002154273921040361,0.0014591594262222392,0.0008979370558936517,0.0004287236038596868,0.00016643195692201746,2.582358526353253e-05,-0.00014769470193965416,-0.00025686184627248074,-0.0003271796401932182,-0.00044428746859484546,-0.0006145704998803557,-0.0008292185169106608,-0.0010828724580062344,-0.0013960841453330053,-0.0017480728971299919,-0.002222228603432282,-0.0027937355203079663,-0.0033065330114141886,-0.003795478459457102,-0.004319707261513991,-0.004887151173836437,-0.005477451149994114,-0.006067071060691975,-0.006602848106046945,-0.007075410510295579,-0.007496494002292882,-0.007859964191052131
-0.009651676147814226,-0.008951924292660635,-0.007262446261111812,-0.004919577209233207,-0.002363255015728977,4.196048991625254e-05,0.0022403513139449683,0.004118878174133219,0.0055181299791348115,0.006581137766489051,0.00737483862089822,0.007820029096916195,0.008099924011649176,0.00819043742900805,0.007991064888288662,0.0075996654285662955,0.0070042227860362466,0.0063196122240984235,0.005607504939838673,0.004938723566087208,0.00437360743593378,0.00391209776040313,0.003676071028682182,0.003635348451498592,0.0035432432773869794,0.0034234166615109323,0.0032872381284926823,0.0030613941975232684,0.0027213561222816087,0.0023007888956475585,0.001605698230354413,0.0008775733071760371,0.0002726478005525234,-0.0004471515037734088,-0.0011765370248901397,-0.0019108247223106518,-0.002634536684344036,-0.003281685155092518,-0.003917856520603057,-0.00451044595133652,-0.0050712693925908684,-0.005536907006062197,-0.006017957669668755,-0.006475354711393621,-0.00697718261060914,-0.007432398136530197,-0.00786176247533775,-0.0083458617876953,-0.00881667920672793,-0.009291836937302993
-0.009713124776884175,-0.009228664487650416,-0.007786732065359603,-0.0055803850340520956,-0.002961849503822417,-0.0004485833391956169,0.0018802876332084499,0.00398431365660119,0.005715522748220754,0.006880590418771851,0.007717381615911631,0.008266125808988783,0.008510580704935333,0.008575956719484263,0.008504749305403944,0.008220028085611977,0.007626826009962614,0.006926628784424629,0.006057572471418322,0.005300351322778444,0.004605341884109308,0.0040539752574267575,0.003763387839430471,0.003561318973559894,0.0034835537805527434,0.0033863283698915246,0.0032588711640521195,0.0031300974346217276,0.0027775156052323507,0.002338297725469322,0.0018652607847050194,0.0012267713971897021,0.00047745197906804397,-0.0002615155097988904,-0.0011117093162865408,-0.0019152569627754832,-0.002648542826799514,-0.0033770526406066243,-0.004099687699739516,-0.004779747578205886,-0.005410351740952826,-0.0059534746234966626,-0.006471116654360587,-0.007016498577119666,-0.007453237646488774,-0.00785601671798258,-0.008326732862515214,-0.00880920926369933,-0.009277960219684744,-0.009689119444307894
-0.010935688197934234,-0.010326198314678018,-0.00853789878940401,-0.005717892237479174,-0.002455309028428974,0.0006552869235085892,0.0033298739454777878,0.005470336465619514,0.007136426691437939,0.00819286789694611,0.00883430356804652,0.00901102675449277,0.00901877233584648,0.008924862063200745,0.008572893477578277,0.007863389922341013,0.00708235750318972,0.006183943802783158,0.0053630411116644995,0.004754878042119864,0.004427817109022781,0.004310331523357309,0.004265261956658254,0.004231320718936265,0.004144325401876788,0.004002590482317651,0.0038103489222610946,0.0034727262216705137,0.002905703667255473,0.002190050860555628,0.001461599754220376,0.0006607278181807888,-0.00016383543096806677,-0.0010312657461205238,-0.001808855886799337,-0.0025157039122488717,-0.003226573703890114,-0.003889135321392094,-0.004528117034668667,-0.005040009926606524,-0.005515796986713091,-0.006047666981607219,-0.006515203500393939,-0.006972805735274756,-0.0074408898259115674,-0.007868479837739799,-0.008298199426878131,-0.008873028906229844,-0.0094199179403118,-0.0099149012550105
-0.009294778311675977,-0.008929292402625454,-0.007631626172417527,-0.005573184561385464,-0.0031031977101125454,-0.0005619763670252802,0.0018500154202279523,0.003919031907783543,0.005579912305428766,0.006842516509838735,0.007674415224837564,0.008251477960201675,0.008495059224733557,0.008416904023788212,0.008289365995008123,0.00802291425248016,0.007569826870517265,0.00693370148132069,0.006187232474296049,0.005293366574254991,0.004523764454229433,0.003965635650493803,0.0034506870680693184,0.0030280271706298167,0.0027229689011558805,0.002598224317036627,0.002496101323484868,0.002252923792532174,0.0020316729668502192,0.0017911609581209055,0.0013840047916923747,0.0008364864458875589,0.0002890652491735002,-0.00035862110734028813,-0.0010496348156047626,-0.0017721823132577528,-0.002469078834762581,-0.0031719654890086627,-0.003840870920882992,-0.004461548622817387,-0.004972896618388228,-0.005469679014459786,-0.006062276145779215,-0.006579491583753835,-0.007002320602418132,-0.007519467134838291,-0.008004516490335904,-0.008412931302287449,-0.00883610950012761,-0.009269810646289546
-0.009814440196515308,-0.009694880942697846,-0.008747542921123053,-0.006782267704625335,-0.00412176491983489,-0.001432350892140096,0.0011090414635739577,0.003413646276576913,0.005364808307411383,0.006733189370822498,0.007539943600857388,0.008112807887041634,0.008440397648620281,0.00850095650419085,0.008382632304475685,0.008058324687881894,0.00755203976324886,0.0069169791171921294,0.006186597532197847,0.0054066930695272596,0.004660544813206683,0.004133564900423313,0.0037877289882888984,0.0035457894130482936,0.0034971427856293332,0.0034230940451578555,0.0031890452545387973,0.0029469838578096968,0.0026829327122143694,0.0023077215207826674,0.0018545400613743076,0.0012918147163908415,0.0005426987159307144,-0.00016724269131249283,-0.0009053744150424263,-0.001749721116271061,-0.002517151703799406,-0.003238963950451601,-0.003822450333843398,-0.0043887479744178035,-0.004928881161528559,-0.005440589265693716,-0.0059733033151091845,-0.006417380549420487,-0.006843128899754243,-0.007300745294636771,-0.007795548776954684,-0.008242079688231917,-0.008683810164434033,-0.009118050017901735
-0.008571671742078043,-0.008467266405305731,-0.007791577296316634,-0.006491547095063305,-0.0045171998822356,-0.002386794542140804,-0.00028913604049083904,0.0017300273642924754,0.003467533627945267,0.004915480314878243,0.006041164381356793,0.006778047321082617,0.007329599389797704,0.00770877289973702,0.007906715900452298,0.00792042376678858,0.007758946375859183,0.007396996450085513,0.006856865292134353,0.006131087429270111,0.005310447508835002,0.004536006461258314,0.0037557493564343986,0.0030431449869545895,0.00259342451388143,0.002177138586419574,0.001845788980507569,0.0017175554805082078,0.0015631740274761594,0.001332651148765004,0.0011046027235896508,0.0009015734972619508,0.0005565329478568373,7.375923256597209e-05,-0.0004246002947411371,-0.0008826877233074524,-0.0014000741061022872,-0.0020285462844956896,-0.0026706910298148483,-0.0033045733559838673,-0.003854018078611225,-0.004442576920398693,-0.00502441809699247,-0.005574772207290585,-0.006191475354554147,-0.006733972235464124,-0.007140217914760756,-0.007494016633274879,-0.007882486901809083,-0.008357410232166185
-0.008691759082916122,-0.00825392434942551,-0.007076852565655976,-0.005255940406845638,-0.003030375227136796,-0.0008228693539213191,0.0012552315212373537,0.003103459191151128,0.0046263618171456,0.005791449290011004,0.006703692478124241,0.007259528377245111,0.007552987926733482,0.007752629129044859,0.007858864632602984,0.0077067920492326514,0.007272290344058558,0.006733684074366423,0.006021096264050378,0.00522444238377204,0.004521849297232161,0.0038678984299422773,0.0033201986019729033,0.002976871682148031,0.0028081393685433684,0.0026533969802178662,0.0025195583168855164,0.0023859073171229057,0.0022120813213166255,0.0019455447879649815,0.0015471929638021875,0.0011243180642543722,0.0006425899518435265,3.615188763922484e-06,-0.0006934067048743862,-0.00139378387513725,-0.0021009144100010194,-0.0027500257168562563,-0.003357787588596961,-0.00393370356255914,-0.004505723263763094,-0.005084763924467859,-0.005576311372328146,-0.00602197877185554,-0.006450754842055407,-0.006893743237679344,-0.0073043755717158605,-0.007753645971335897,-0.008189848559552923,-0.008563178688838869
-0.00899454985968226,-0.008706168643483425,-0.007766693086100899,-0.006205046108070575,-0.004113278414982607,-0.0019490633565273326,0.0001665238512140278,0.002137451386156989,0.003829422703021331,0.0052213048820889795,0.006399146807263532,0.007239045287669918,0.007725102054661872,0.008011884739161366,0.008097045617423602,0.008105013374338988,0.007992590094611228,0.007627250993930161,0.007038941981470014,0.006358976403777745,0.0056289799813320955,0.004826464404615891,0.0041356990618029495,0.0036011125292566477,0.003174857205757632,0.0028127456476601314,0.0025479066295867442,0.002418531782641157,0.00224978222481039,0.0020391442264088722,0.0017776344489645046,0.0014174653811093525,0.0009779852207411838,0.00041791477796932256,-0.00024938393650289676,-0.0008906256450446439,-0.0015318606868288107,-0.002156117626532202,-0.002797325497880092,-0.0034821472135297513,-0.004114931849508273,-0.00467990408721698,-0.005209347115230164,-0.005699798477259811,-0.00618482315649517,-0.006684021152354338,-0.007226449229022597,-0.0076790300034165985,-0.008127626639063785,-0.008618496796063873
-0.008369166526669719,-0.008225980475727661,-0.0074032000629613666,-0.005945988657368872,-0.003981364070172321,-0.0018394635674590274,0.00034398132271912235,0.0023756075441314735,0.0039789836223240345,0.005324962691402996,0.0064555362227649085,0.007244759291014976,0.007651078437118204,0.007840382689436484,0.0079480174868502,0.007934584789839742,0.007741432700284396,0.0073352753221212225,0.006782470083208952,0.006053924722552281,0.005235300727459297,0.00446475554971952,0.0037170654304606735,0.0030543150214271497,0.0025480740335183266,0.0022162744278004364,0.001992288245364266,0.0018105155954069728,0.0016215549250753422,0.0013885489809224991,0.0011882550897474487,0.0009125441629571596,0.0004505893271978155,-7.918872347819183e-05,-0.000594133642539074,-0.0010926491224855976,-0.0017072709746871295,-0.0023251036017090136,-0.00298104562260436,-0.003731595173429412,-0.004335402951859486,-0.004819448599359663,-0.005312325804463303,-0.005838304304308097,-0.00636158293210161,-0.006857277212641397,-0.007331938758151681,-0.007832437569831634,-0.008287643940758626,-0.008623640794061733
-0.005477134283794832,-0.005233606295849817,-0.004675125371302816,-0.003808486526849032,-0.002656427720054749,-0.0013620717310645367,-4.402501055019169e-05,0.0011627167992311884,0.002201446875846544,0.0030929647584306244,0.003835791749734455,0.004359495454322652,0.004686179940081913,0.004852905945307542,0.004897114336248769,0.004846667074456088,0.004717184897051169,0.004524969509000926,0.004219141757196965,0.0037422703533851387,0.003271229206978041,0.002797938420533993,0.002290974869441644,0.0018106461217756503,0.0014152793203551692,0.0011768024669077165,0.0010575324294737898,0.0009108740889022661,0.000752235547424333,0.0006742972049588353,0.0005695942957786417,0.0004337730261064753,0.0003398945529506859,0.00017365701748411232,-0.0001228911831600195,-0.00041949286396247734,-0.0007163418467062627,-0.0010271381481020943,-0.0013314261336777227,-0.0017268860273894245,-0.0021893740204691464,-0.002592367412135249,-0.002981440185333581,-0.003376862486135336,-0.0037135621220416156,-0.004113625526077155,-0.004573710294005174,-0.004961007340419243,-0.00530863798592435,-0.005632245114456948
-0.00810240508204017,-0.0077592147997100815,-0.006835667886779624,-0.00532376935819521,-0.003366341265233185,-0.0013257474386506219,0.0006915699526128192,0.0025050827359562517,0.004061758199354017,0.005316513823575687,0.006218033134330305,0.006827103973947344,0.007147887686912624,0.0073233082015626135,0.007335826533837568,0.0072315726643739295,0.007043338979224009,0.006640615903080055,0.006056672626784313,0.005362663249730919,0.0046384221163817685,0.003966795375693092,0.0032565957587495247,0.002812450850328822,0.002525100624405979,0.0021086268358429536,0.0019484769984844297,0.0018964153422987187,0.0017536775258226289,0.0015558992647062473,0.0013332265886557633,0.001013025382163673,0.0005678730228968823,3.728420739341713e-05,-0.0004694808764481734,-0.0009622097920328608,-0.0015124086244066213,-0.0021223312553719014,-0.00273122150173165,-0.0033002122966157353,-0.0038587153985417395,-0.004448961607000912,-0.004952004526830543,-0.005518959857385009,-0.006026113310458914,-0.006473375813580264,-0.006911050243131197,-0.007324647161720305,-0.007721127459732127,-0.008069122198930877
-0.008255918257988836,-0.008262134148615331,-0.007802052149681301,-0.006614594262357726,-0.00463911284255336,-0.002456571508415624,-0.00029255194558191864,0.0016856425461697618,0.003454791389531525,0.0048615591718299865,0.005878884550214704,0.006618548998681614,0.007063735745181243,0.007278224913579158,0.0073348549416954985,0.007211908832611024,0.006953222835839688,0.006497345547145894,0.005872078806570655,0.005154373667938734,0.004479467004818947,0.003888992425530289,0.0033001257955570067,0.0028504152250146434,0.0025821747676654733,0.002374400518559298,0.002265092083127982,0.0022723544569270664,0.002216180613870772,0.0019950539751564145,0.0017189691924972632,0.0013369247297188949,0.0009190925168713108,0.0005065383871500163,3.3340265536136905e-05,-0.0006274053885082178,-0.0013286878318583023,-0.0020173714554194374,-0.002689172667405709,-0.003232416575949468,-0.003672535850497573,-0.004128944260746562,-0.004679265795006774,-0.005227640961395195,-0.005700636176673856,-0.006059981797725979,-0.006434945647630013,-0.006881930633960438,-0.00732980464810437,-0.007721958294494156
-0.00856709621902222,-0.008518862056063071,-0.007610667552826777,-0.005951549013329056,-0.0037684639365802046,-0.001510955174119389,0.0007259467293189476,0.002720495545323298,0.004390370927993689,0.005806376131872171,0.006758980894529314,0.007357254883442892,0.007672115271944611,0.007781293782809124,0.007851105972705583,0.0078049452475053285,0.007544672797238734,0.007018496274974639,0.006480284577142486,0.005877694058540023,0.005041328188917948,0.00424368493607432,0.003576363051444079,0.0030087661633171193,0.002529280777822979,0.0021791671943834075,0.002030935410866741,0.001889633540527858,0.0017216827134979283,0.0015563916731885896,0.0013428952491972195,0.0011020745171260178,0.0007374742326204858,0.00020078262750434524,-0.00043736462842489126,-0.001011128417545944,-0.001621771883591074,-0.0022179082855797185,-0.0028592178682437354,-0.003497363459925687,-0.004124268902335836,-0.004668190060715567,-0.00515428179715895,-0.005660494531533431,-0.006242601148548698,-0.0068342743296950234,-0.007352714587640476,-0.007789914792362891,-0.00817315237812193,-0.008519184304385738
-0.008688888888801441,-0.008499920136762935,-0.0076190753156640464,-0.006052328662186577,-0.0039013491809280123,-0.0016436413294959918,0.0005380277293461081,0.0025327343252410316,0.0042377901129015535,0.005544577996890873,0.0064529931862162306,0.007095429546423544,0.007476022773383112,0.007620982700156489,0.007627134970293174,0.007512148504774669,0.007213799084471733,0.006671394468565137,0.006037776052874754,0.005392380094160745,0.004659407779836375,0.0038431868047756074,0.003179076420211452,0.0026935360702073042,0.0023112055901286354,0.002060819616949414,0.001984007633308138,0.0019496196929153227,0.0018985448408780437,0.0016929556828708602,0.0014501311777365415,0.0011709476956840688,0.0007215069454530004,0.00021912192198081815,-0.0003166456632625398,-0.0009748676510681496,-0.0016402882877521027,-0.0022290672093429513,-0.002839779302162375,-0.003430429468891737,-0.004002431551103123,-0.004545478521617104,-0.005046384396132803,-0.005519421130227273,-0.006019474084624748,-0.006553918322036953,-0.006898331491093975,-0.007351765563632511,-0.007820265846079366,-0.0081206898889855
-0.008645406418264643,-0.008349852316825807,-0.007347542800577877,-0.005692867613452887,-0.003553274142892162,-0.001363791024418926,0.0006627984793932249,0.002515632894863362,0.004076009152933192,0.005288671918614702,0.006266701426501578,0.0069736447288434545,0.007344752069054612,0.00747271907906036,0.0074748936791624015,0.007346032184245656,0.00708084449741948,0.0066176383893941995,0.006012389991760659,0.005362716329038042,0.004634794132453548,0.003846472480925723,0.003082605293886987,0.002359256929078254,0.0017607142487949187,0.001361218671221414,0.0011845494323704311,0.0010857769055710469,0.0009458331277455217,0.000826939285709395,0.0006990746993851098,0.0005427473553713423,0.0003312899522830708,4.6066560149762765e-05,-0.0003820049939444799,-0.0009303879296017769,-0.0014231804570353033,-0.0018694978139591953,-0.0023971557509294313,-0.0030367274528426916,-0.003689445471479294,-0.004185141657341369,-0.004680864121192886,-0.005225293894069521,-0.005780800390626889,-0.006315781857083006,-0.006776411395724289,-0.007216225907968865,-0.007643154663377038,-0.00804953821849104
-0.008807567934127503,-0.00874375955403428,-0.008102925373975814,-0.0068222056006491645,-0.0048438207778153,-0.002561726921870878,-0.00022706033328412175,0.001994146748779426,0.0038723858294566985,0.005387051592326711,0.006578918147900991,0.007443338104464742,0.007942727056247934,0.008149717338247493,0.008252513411029935,0.008202157362865413,0.00798417721810239,0.00760987316106433,0.007098341540519775,0.006377046700794337,0.005582100889596441,0.004793039974767472,0.003968452772693385,0.0031750796992688927,0.0025296361713095785,0.0020998118851062227,0.001839603781547499,0.00163728886186594,0.0014576751808763008,0.0013761674572498077,0.0012522916288409275,0.0010336240375878622,0.0007536743469186011,0.0004127658615491669,-6.39373076054628e-05,-0.0005763378931357547,-0.0010743713499538577,-0.0016941016874243767,-0.0023579747743202404,-0.002905595006851742,-0.0034632200636142163,-0.004122537561609381,-0.004737439192576842,-0.005260858932817577,-0.005814019663456345,-0.006365897404324262,-0.006884145766236784,-0.007310648850893067,-0.007739663247668551,-0.00823675355981552
-0.007609948455542831,-0.007478174906095316,-0.0067173783741025965,-0.0053724182307796475,-0.0035940457832176285,-0.0016245254010556634,0.0003345954097036871,0.002143713411523361,0.0037611623479347767,0.005132353759783715,0.0061852526362243575,0.006939603957429395,0.00744769455809913,0.0077018607230464504,0.0077268751195626985,0.00762992486626566,0.007404540904760373,0.006992871875985565,0.0063892617512356885,0.005650982049791668,0.004786994537652004,0.003922185264214379,0.003072660778281454,0.0022878836204290576,0.0016947061252159576,0.0012077146915315787,0.0007697122170727364,0.0005011401365185262,0.0003568746403417766,0.0002607267322614764,0.00020841479094246517,0.00012743228808394748,-9.872741309716794e-06,-0.00021335516270430414,-0.0004805962868888288,-0.0007732802470339948,-0.001101656585840492,-0.0014828747802527699,-0.0019137571312442638,-0.0024551930128420985,-0.003043282817695816,-0.0036499076169838863,-0.004198658727835127,-0.004717782612034456,-0.00528680947413348,-0.005864942575720392,-0.006378857493666873,-0.006759804691400868,-0.007141700192366316,-0.007563682103940981
-0.008303970268264805,-0.008179724064503346,-0.007260184079025174,-0.00562901867099107,-0.0034659092026626415,-0.0012221757947332224,0.0009103025429569103,0.0028726504503416247,0.0044032351374564,0.005624885668365174,0.006678220007410995,0.007372068865808582,0.007698279957991742,0.007892776249803812,0.00790714857172795,0.007663697188691409,0.007234971977675621,0.006668740808948934,0.005989862244041586,0.005203864807828942,0.004402582453227205,0.0036399553859496597,0.0029464714934599014,0.002423511389846057,0.002037553953782101,0.0017125180960253803,0.00150907788685484,0.0013671099483587297,0.0012388465088380486,0.0011262073161509081,0.0009485753867514076,0.0006944665798051242,0.0003904529564451799,-3.283033937600989e-05,-0.0005390815866127626,-0.0010880181435423376,-0.0016608116617915164,-0.002222462759556799,-0.0027629356436035817,-0.0033065046167204837,-0.0038564929735232147,-0.00437466121752981,-0.004922813878942791,-0.005488645006885295,-0.006040303117747326,-0.006513264929120372,-0.006902189315856558,-0.0073677874070826165,-0.00777533680182199,-0.008041100897636998
-0.009163148428534803,-0.008928509563212322,-0.00803206980385127,-0.006412328902949196,-0.004078555914801258,-0.0017253720309376272,0.0005072105777315593,0.0025710393579666214,0.004352905553735097,0.005734425888403079,0.006765781094943172,0.007493815406459989,0.007950005809571635,0.008179303009690435,0.008208248455433699,0.007990835700702371,0.007695042244214021,0.007273848544546338,0.00660702073755253,0.005906259697082592,0.005115832509410582,0.004243403611075828,0.0034849219225325796,0.002814521601708055,0.0022084041122353805,0.0017666516850819805,0.0015480217300030512,0.001414597790882096,0.001272935110053335,0.00111791666748617,0.0009687389015170001,0.0007635335287819408,0.0004426067001270747,5.127469779588126e-05,-0.0004152141024625167,-0.000970128472907638,-0.0016522859050271785,-0.0022639456935558936,-0.0027585248328830672,-0.003288921035358562,-0.003955907733614029,-0.004541512629884532,-0.005011708780515307,-0.005558942799517516,-0.006191059586113551,-0.006777640821358102,-0.007247018220632865,-0.007740756246017392,-0.00817329120378082,-0.008474876995866267
-0.008864651405762246,-0.008527928310518941,-0.007399267867310997,-0.005553576473255133,-0.003264788550290906,-0.0009049133062154047,0.0014591317051782053,0.003523509138316925,0.005128676866982321,0.00644888329164618,0.007408573394642844,0.008028010077509421,0.008402237481248742,0.008520359212989936,0.008461176071254087,0.00829876202908985,0.007970465602272856,0.007414004972152551,0.006706694304174171,0.005884735659301194,0.005072865562103413,0.004279362873241845,0.003614484428199308,0.003034303427732906,0.002606686964620656,0.0023531378704291133,0.0021568867230580832,0.001962748394263119,0.0017904048103837258,0.0015687696460288335,0.0013706372240945368,0.0011236043963179557,0.0006331430667334015,3.520245317257326e-05,-0.0004957473853256051,-0.001083882380404117,-0.0017954962184138148,-0.002496841560102903,-0.003065306538752681,-0.003690048869472635,-0.004334733077493238,-0.004907857947958551,-0.005401195766799895,-0.006015538530422261,-0.006608922764333764,-0.0070366690286560365,-0.007479561127887181,-0.007951023778929936,-0.00837771841339352,-0.008757620086988487
-0.008859059274883906,-0.00852946913071626,-0.007559968263718993,-0.0059258905309460845,-0.0036402731506980056,-0.0012813449082785373,0.0009182813511787039,0.002883835812689049,0.004503320625067604,0.005790969158517636,0.006745608850254288,0.007389080552646987,0.00775044910890191,0.007853174970390241,0.007776555966900146,0.007613252141904451,0.007318544911563601,0.006792724074026839,0.006135820976827557,0.00538853873543064,0.004476262433364685,0.0036228687745447144,0.0029258967479162813,0.002410357683894809,0.002000155207123364,0.00172538146287068,0.001542388293441139,0.0014413949863084949,0.0013986984988665434,0.0012279820227879287,0.0009879333971509938,0.0007578955633116722,0.0003559356035260739,-0.00011062642168342316,-0.0005370315742095139,-0.0010850903081335815,-0.0017053311398821517,-0.002295366437724191,-0.0028823350955427805,-0.003466212987991212,-0.004069640554214224,-0.004566649985243674,-0.005099740883036372,-0.005742087523959368,-0.006236882278128019,-0.006640362754884638,-0.007068175988969831,-0.007528062656112824,-0.007949997959685137,-0.008295716664850789
-0.008698215639890207,-0.008653529472006252,-0.007925707720417924,-0.006463105183224653,-0.0043233624391819285,-0.00199451453803979,0.00030330963739433694,0.002398951130234463,0.004157233601141061,0.005608667534608282,0.006715325481893828,0.007458913081063594,0.007874462321173658,0.008040191706386918,0.00803886329398121,0.007925053247706634,0.007653018759106962,0.007159429982638334,0.006434213054773822,0.005649905509875856,0.004820092924735917,0.003993095157144722,0.003419541441723357,0.0029595563670587882,0.0024990276521486914,0.0022316723691950414,0.0021062789641393995,0.0019697527280513882,0.0018093943278530138,0.0016072760690840715,0.001416902006566073,0.001193316284499981,0.0007334387023246861,0.00015311287287962837,-0.0004797988886064988,-0.0010718347830193289,-0.001676576433873637,-0.002275431421961914,-0.002878877709726517,-0.0035526015557920078,-0.0041616996330859045,-0.004701099545725037,-0.005256002047878518,-0.005715363665493652,-0.006168365351436028,-0.006620099033525496,-0.0070101651630798505,-0.007501760508135157,-0.007980511739905171,-0.008354305739442638
-0.008893112197963182,-0.008891108504955485,-0.008175609453148965,-0.006704218560530688,-0.004520089016389308,-0.0021420187036135007,0.00015477541159040714,0.0022254313283285457,0.004042208797669287,0.0054858846003240985,0.006520504062225543,0.007266406242942085,0.007783309484184237,0.008055384315392258,0.008176023640387001,0.008177548335559207,0.007916975252698515,0.007396190853566146,0.006752278443011668,0.006095696679483209,0.005307150042353094,0.004538071591362524,0.003913391557085143,0.00330497773379491,0.0028262930600771296,0.0026031583650484398,0.00240794663860102,0.0021670844338171945,0.0019684837456686827,0.0017832873515318877,0.0015751862530697883,0.0012722526111255685,0.0008725115637582375,0.0003941577850777105,-0.00017900590329561668,-0.0008008704424455522,-0.0014335749777296953,-0.0020924968060936806,-0.0027121859243568803,-0.0033391424583240877,-0.004019507977440218,-0.004659971614809162,-0.005282014763865847,-0.0057187612209378975,-0.006171009613510343,-0.00669614892129422,-0.007172978825269135,-0.0076276374330354595,-0.008033947103579735,-0.008378999794657524
-0.008407031727635968,-0.008043529917362215,-0.006975688767410003,-0.0052473100114587634,-0.003117753004314038,-0.0009105459517700549,0.0012679937845674616,0.0032683374032932257,0.00487241875216359,0.0061556085102581325,0.007051708024467529,0.007667410118687825,0.008016480819076717,0.008109713065871637,0.008080550613480252,0.007929098775193037,0.007623390770423136,0.007147606650451679,0.006526076739827536,0.0057412950625901245,0.004883215367600867,0.0040648145342022084,0.0033681485551181017,0.0027974004603064893,0.002369484900684988,0.0021123147196044356,0.001913001229718271,0.001706869307057422,0.0014737006176006612,0.0012453414177431897,0.001072437799475261,0.000724485594150327,0.0002668809874158277,-0.0001838102346160131,-0.0007054367106168064,-0.0012726930873097982,-0.0018853872492398318,-0.0025061929459766737,-0.0030533648539017495,-0.003622322969016843,-0.004233059164959031,-0.004870565057493323,-0.005460215476547842,-0.005984517651155345,-0.006473186295576297,-0.006905788213023165,-0.007307654347157456,-0.007771028572549649,-0.008172893238196848,-0.00844339017780513
-0.008446731637528465,-0.008196804064974549,-0.007291617818690199,-0.0057615001580440086,-0.003707504594891716,-0.0014589382951913227,0.0007276962530517817,0.00269133332900369,0.004356477394381761,0.0056808420803922625,0.006685293275451743,0.007297182542276629,0.007621435645026094,0.007847363345137592,0.007941641407906952,0.00783700977040838,0.007545282423511468,0.007036299224085886,0.0063671631895806085,0.0056579482561859365,0.004861946947795931,0.004045302897298545,0.003378355620946536,0.0027269152471953387,0.0022044711800271962,0.0018580940447038168,0.0016259917473932842,0.0014835358844938775,0.0012886877614150438,0.0010334265837623597,0.0008085719492971603,0.0005729770267681022,0.00025488171349107426,-0.00016928553263238614,-0.0006625080147494826,-0.001204014855608687,-0.0017510584840657703,-0.0023030132714243314,-0.0028741207445291536,-0.0034514477458998816,-0.004046127534783123,-0.004644591754982231,-0.0051485787890420765,-0.0056248868241447645,-0.006206264769574628,-0.0067166471958199185,-0.007090064822831996,-0.007568481510819795,-0.008032356194133812,-0.008420966297335948
-0.009107299148795057,-0.009006064145425152,-0.008027679466557958,-0.006210323194096591,-0.0038051487660314097,-0.0013102678162707948,0.0011504069400858413,0.003330063563481556,0.005062496642326789,0.006438669218436272,0.007402081418023403,0.00788662416199415,0.008240018109711263,0.008371271292934804,0.008298095764592131,0.008115919402863447,0.007729949080143486,0.007188796707252439,0.00645558746891117,0.005568326257953173,0.0048262129326398055,0.00414430500064932,0.0035566287335888555,0.0031586152609665236,0.002881176781225867,0.002641573949406325,0.002536995436133457,0.002429463419985845,0.0022808005811966736,0.00206846756061241,0.001636087891403373,0.001100457568720045,0.0005795602140246475,4.145155952855383e-05,-0.000750428479866831,-0.0014761259731899223,-0.0021527593173856067,-0.0027805620203588234,-0.003375287611787851,-0.004001335944311841,-0.0046227282762589155,-0.0051362153405379125,-0.005538735601624154,-0.0060141538971680035,-0.006498499795901872,-0.0069214423988819065,-0.007342472445100471,-0.007765478212455812,-0.008147115671375854,-0.008479698124866913
-0.008896987511021104,-0.008470609024556805,-0.007090761150868378,-0.005000996778002187,-0.0026086764807721607,-0.0001958482985196306,0.0020757552920766965,0.004075852280079676,0.005724302877469777,0.006973523812949143,0.007804227577970207,0.008229803557618107,0.008373402815718143,0.008462320577732331,0.008425485008768415,0.008155010321481599,0.007696406677286863,0.007064299526062452,0.006321658186433647,0.005524492232615801,0.0047385449266656755,0.003984317478302369,0.003337085582338234,0.0028054369368761987,0.002502028563322714,0.002257564508453344,0.0020282465081606416,0.0018712554463767481,0.0016411623136848128,0.0013272661654604814,0.0010036745044817335,0.000625269991258102,0.00012097842380734162,-0.000456494781020435,-0.0010328983018223835,-0.0016825769237951566,-0.0023170549958552184,-0.002968909881343278,-0.003598760121598242,-0.00422231409648185,-0.004845908017565126,-0.005422162687612375,-0.005941871002339063,-0.006420531344509343,-0.006919179120553554,-0.007438928969755969,-0.00782972393060162,-0.008349180180602175,-0.00889805440217312,-0.009280176489611328
-0.00883430002070561,-0.008277403095714096,-0.006665027236226744,-0.004319246636182966,-0.0017016125921724922,0.0007574383812962843,0.0029218443577020536,0.0047125834890996195,0.006064731793880003,0.006939655756060392,0.007553170570057115,0.007947449830007036,0.008048969427201624,0.007961161466492828,0.007679824386309648,0.00721117962593233,0.0066118846266579705,0.005890317931119207,0.005085191961286111,0.004390682100558797,0.003701315177159617,0.003074518426358949,0.002665696843224693,0.002530568921693583,0.0023577248434428714,0.002163479707629718,0.0020338434364447072,0.0019846029325120036,0.0018128594918800128,0.0014903228591948117,0.0011157276807538053,0.0005816724477670258,1.4604226238042065e-05,-0.0005232674992207084,-0.0010961584665405172,-0.001791240422565283,-0.0024571669022163626,-0.0030942196044467084,-0.003779500518508209,-0.004306984931951304,-0.004782784525496472,-0.005265717934121566,-0.005751192761136002,-0.006267518845314514,-0.006711003329386784,-0.007111433562754442,-0.007572131318987102,-0.007980715792189709,-0.008349041632796973,-0.008708743076415481
-0.00958516193519462,-0.009392475620801023,-0.008390594656842514,-0.006367513885646557,-0.003682331019401675,-0.000968979350129573,0.0015966814866984053,0.003727984850677622,0.0053785735471434705,0.0065025509594916426,0.0072776719572660385,0.007681490239864899,0.007880370519930015,0.007914638128355935,0.007671770525430076,0.007255548066600982,0.006646101260433326,0.005925873403342477,0.005120847637305248,0.004341670253057552,0.0038460188516161267,0.003504350674810434,0.0033170047052315625,0.0032126187396897712,0.0032151139019977936,0.0031838343093837217,0.003147079495196441,0.0028763585360331067,0.002527082950822012,0.002092853870190941,0.0015371159589230834,0.0010184238015493187,0.00029693113867555504,-0.0004316726339028031,-0.0011235269414046445,-0.0017967262202018325,-0.002436099107531603,-0.003096399218468825,-0.003765494419731834,-0.004302323038414598,-0.004711605640321777,-0.005242319116753699,-0.0056731241483814285,-0.006058365162806353,-0.006498414403878696,-0.006930016116298749,-0.007320567034181055,-0.007819761699756298,-0.00834576795573544,-0.008802159601345123
-0.00872604516477729,-0.00823710663618053,-0.007156910506849658,-0.005524703879020957,-0.0034060413612090647,-0.0012288418805831223,0.000836622672527963,0.002761582500107703,0.0043984465825233285,0.005686367868948515,0.006656435907692165,0.007361466590763935,0.007812862718672875,0.008057935477837026,0.008107214220000748,0.008005189618076215,0.007807118260056822,0.007428798259669387,0.006853359033291254,0.006208838926197482,0.00548195902571199,0.004698223091226391,0.00391342493465161,0.0033108800966792718,0.0028566646519214717,0.0023705995479741766,0.0019098605556118527,0.0016128677894332063,0.0014506891652169166,0.001202153662548605,0.0008690901563675847,0.000558275707856939,0.0002467560647341535,-0.00018332741274147221,-0.0005525019671316105,-0.0008906795769109731,-0.0013661564941553795,-0.0019262865713161324,-0.0024944295325228863,-0.003069243179651488,-0.003678872995995347,-0.004208366161570645,-0.004717426285008173,-0.00534520648298312,-0.005835434499404928,-0.0062736004423825644,-0.006862413917566995,-0.007360436051820083,-0.00779021715326099,-0.008187699740166948
-0.007218826856857297,-0.0071641753254412755,-0.006430829507490816,-0.005027899356299068,-0.003188562253687341,-0.0013266136290553782,0.0004593807190125472,0.00198222057391009,0.00328300814468813,0.0043604487620388255,0.005170854190189581,0.00575542529394713,0.006157081544735245,0.006319154630942985,0.006221961340903748,0.006137563985117993,0.005999839032556855,0.005638922694137778,0.005036465661910735,0.004522628181280397,0.00394409047984177,0.00324302304029427,0.0025937215354332127,0.002077906481640682,0.0016664200517185297,0.0014159126418845935,0.0012650197550968822,0.001162035265134235,0.0010664168497650805,0.000977453125472132,0.0008767308123344324,0.0006441773546474144,0.00036985531943976104,5.4341713836185177e-05,-0.00032977041201947925,-0.0007371986608414029,-0.001167860822868101,-0.0016231750265484947,-0.0020565355081571296,-0.002534192809592876,-0.0030592530659261643,-0.0034511695164053465,-0.0038123732440691663,-0.0042555009788626,-0.004748826549879554,-0.00516586847443365,-0.005530751769987582,-0.006028146760404112,-0.006485226334234412,-0.00677946265990715
-0.007822275059435755,-0.007634278985405861,-0.0065957747289537814,-0.004876961585052858,-0.002808751749808896,-0.0008381958052337433,0.0010238437657992907,0.002713509172583572,0.004199335091715413,0.005418991932956096,0.006202892435689911,0.006720275713996516,0.00700246146787755,0.007132144152617625,0.007125942518707679,0.006821357662566523,0.006419911558075522,0.005969373535794714,0.005420457176913598,0.0047464370304801965,0.0039771785057988035,0.003186606329841548,0.002532533953823674,0.0020717799022815188,0.0017800391641401442,0.001610551932145238,0.0014423916608428443,0.0013510183771536831,0.0013599894416321293,0.0012775628579512319,0.0010808484304702776,0.0008261929323301752,0.00043643428483295494,-4.726240944817966e-05,-0.0005072530780188036,-0.0009695234807182993,-0.0014342939668362002,-0.0019984261792156156,-0.002629086456429368,-0.003208436115270239,-0.003725863690077034,-0.004221607392890901,-0.00468364190744243,-0.00515596340543081,-0.005610069095705738,-0.0060415855916735196,-0.0065431278400840485,-0.007057788147779762,-0.007513642134232739,-0.007891267742518224
-0.008775565266277704,-0.00836127241374507,-0.007107326398801326,-0.005072633629421665,-0.0025658066421299923,-0.00020767684895973962,0.001892234449643213,0.0037138240071094048,0.005232491498715535,0.006330347762755895,0.007024932081891713,0.007377335809350863,0.007487181401908807,0.0074690773899170814,0.00732775667495144,0.007024546015696121,0.00646609119443195,0.005844734959457545,0.005064351141223682,0.004269901054214952,0.0035257758389045475,0.0028270910978307985,0.002294882929839665,0.0019354106320188256,0.0016824239487968676,0.0015364146723145788,0.0015788233289104805,0.0016171064891449265,0.001490304944952882,0.0013354018838140122,0.0010415057655124025,0.0007053236835944383,0.0003721917993143167,-0.0001464344296738929,-0.0007042341593679326,-0.001314003207052183,-0.0019762216763792723,-0.002555069532159852,-0.0031099648959724588,-0.003698211860967225,-0.004230482589659445,-0.0046699831468499774,-0.005103868161416082,-0.005618415724121179,-0.006064444687371676,-0.0065734330837270705,-0.0070802342642851505,-0.007531772674730498,-0.007908164108629557,-0.008205042328007468
-0.008776118979817315,-0.008377373367322697,-0.006976817307353096,-0.004727056262447381,-0.002036968295438171,0.0005283409237504187,0.0028650657092040054,0.004786240720812297,0.0062616455952056276,0.00733523195156946,0.007971458616510276,0.00825747114590562,0.00826907979255138,0.008045801561151976,0.007744495380162192,0.007325227803490042,0.006747143532483225,0.006027944935741329,0.005054550224556657,0.004208351124094674,0.003542225578224898,0.0029389427585552437,0.0025648447732537255,0.0023048855259097134,0.002208412200326195,0.0022189736938826015,0.002144388256154391,0.001981494986710015,0.0018080152488922955,0.0014645237061508723,0.001073583741327437,0.000602623053162232,4.78633497966498e-05,-0.0006693686593837081,-0.001374149587891362,-0.0019854601757803604,-0.002581053911695534,-0.003235928542067622,-0.003982076064309981,-0.004573849028494123,-0.005075970173950885,-0.005534244043249305,-0.005987063266242067,-0.006434522748991093,-0.006824408050995689,-0.007289155667412224,-0.007782343331261373,-0.008143022235415038,-0.008438958294637306,-0.00879444873163969
-0.008706476882557558,-0.008355578631582605,-0.007134600806935561,-0.005084116920323996,-0.002510520188173788,3.831314597805554e-06,0.002205891350534821,0.004089923038631485,0.005597782203276792,0.006680686444082644,0.007402634823691079,0.007802992192971857,0.007914353320127656,0.007823981726366867,0.007549228143468003,0.007171144088168098,0.006638707758438868,0.005993006652894607,0.005269847808851548,0.004489973355164927,0.0036976835362679383,0.002996221473992909,0.002529343496448908,0.0023409607133654657,0.0022520510546469572,0.002221041531537503,0.00229255155863737,0.0021891199337092182,0.00196903905277821,0.0017877221568143287,0.0014562008818040256,0.0010224558501801008,0.0005216050868552872,-4.9210858913872844e-05,-0.000670640924777915,-0.0013584239987924811,-0.0019882050169365744,-0.002628394878930492,-0.003216250601717675,-0.0037589837070312123,-0.004281480290614938,-0.004725858613465029,-0.005186635196172995,-0.005725681970935027,-0.00614197295214833,-0.006503274944894906,-0.006986617735874971,-0.007438929659177806,-0.007821163562668803,-0.008146610138551487
-0.008920553427459,-0.008780736602339185,-0.007854984494519705,-0.006079878505857188,-0.003633733334900544,-0.001081588143592621,0.0013448667759686965,0.0034749130384586872,0.005199197439483558,0.006537911680301545,0.007380851685747418,0.00787955347615182,0.008128598239694576,0.00814198874008377,0.00790457630571652,0.007585191028326482,0.007116173131407587,0.006515783428098206,0.005694452875714264,0.00483123773755082,0.004047891978810632,0.0033309315390781607,0.002856664027799652,0.002579591787371044,0.002434275622244023,0.0023315335209927023,0.002237415832797694,0.0021305289238767126,0.002042361852802776,0.0018716288694500564,0.0015334812263398752,0.0011611866697987744,0.0006534925012084249,8.03933477790229e-05,-0.0005750823739296852,-0.0012834603169117166,-0.0019132897316132729,-0.0024933476687575614,-0.0031045375077384686,-0.0036792836732220443,-0.00416138655438977,-0.004698912993381727,-0.005178759251533644,-0.005591700615594623,-0.006007555784065702,-0.0063889638409298545,-0.006766594743298076,-0.007252687921460218,-0.007723321462659695,-0.008104772459168455
-0.008644841994635957,-0.008310178638800682,-0.007076304730568625,-0.005128742520454037,-0.002801185944200248,-0.00041469462700242726,0.0017903740684666897,0.003697511475983613,0.0052256073139101645,0.006398659881002092,0.007172526099483106,0.007601401859862629,0.007784325526442415,0.007840251152973505,0.007728269240342691,0.007440060186009264,0.006992739185730889,0.006433389993607432,0.005778980437093176,0.004892595567840816,0.004025195449142314,0.0033699701900220397,0.0027843472706708026,0.0023805773874085276,0.0021709342621776427,0.0020659478032578732,0.0020240532068235605,0.0018987580374036947,0.0018234663080729744,0.0016626916622040754,0.0013955854867684653,0.001047180298752844,0.0006480467750847828,0.000210918704586691,-0.00036471361509326556,-0.0009511472862446325,-0.0015855895133562094,-0.0022177039866442846,-0.0027839953979769605,-0.0033718644334340977,-0.003913547254571472,-0.004417771639257027,-0.00495213362483683,-0.005425461558839712,-0.00586640343533529,-0.006374988229289405,-0.006886166990408581,-0.007349231094334853,-0.007797715741144821,-0.008202204897279347
-0.007866542785536532,-0.007615323370134512,-0.006521486457892322,-0.0047388267511370135,-0.002563553505572314,-0.0005065619490429061,0.0014535432219609712,0.0031185890807347593,0.004552207810966446,0.00559565628497935,0.006191700405963972,0.006549242983174059,0.006713525711672054,0.0067276343856650395,0.006588253032715442,0.006308952503292641,0.005804346457268144,0.0051626240090546695,0.004475761369134939,0.0038618723454936876,0.0033071816477578918,0.0029164820289520068,0.0026456874161029844,0.0024273864122387277,0.0024815101516268115,0.0026015168644236393,0.002503914698798914,0.0023893644225609057,0.002183282622424198,0.0019284290570313958,0.0015719965208167161,0.00107961474820294,0.000600903298746833,0.0001134995377105493,-0.000512835594692345,-0.001252575389861565,-0.0019458767578013577,-0.0025660593585994543,-0.003092081979527716,-0.003491814479244375,-0.003993617053000108,-0.004480476511997462,-0.004824641760340871,-0.005189679634150866,-0.005592317578728882,-0.005990755902997157,-0.006440185751130834,-0.006851595714932703,-0.007222810849054847,-0.007602120982604058
-0.00859332147891611,-0.008242096059741438,-0.007289489761670176,-0.005733477231661261,-0.003607114228262946,-0.0013686830525307388,0.0006789459177650724,0.0025039839934704977,0.004025233769858727,0.0051187322442801395,0.005852501217132753,0.006325996831689513,0.006516166310761431,0.006524024726568991,0.006522023213488161,0.00654813221532757,0.006571450348282429,0.006586106754116638,0.006396135445914498,0.00599566900379799,0.005471660683970913,0.004882988545997113,0.004351348650521351,0.00391711349414845,0.003534267916566937,0.0031776995426836194,0.0028931873934664913,0.0026166935001937838,0.0022700334914610267,0.0018969727668242627,0.0015477605334132177,0.001240418090449928,0.0008070875210383899,0.00025234632877411007,-0.00031777442484542056,-0.0009146828518215961,-0.0015415392758838038,-0.00223391818177322,-0.002918464899242783,-0.0036468355169479386,-0.004381429684036369,-0.0050126506800656605,-0.005652581404167695,-0.006291397601563056,-0.006858717061691978,-0.007429681082400935,-0.00796134855576942,-0.008350352783116627,-0.008698890810277863,-0.009042657905514624
-0.008185207275499536,-0.008074448209419943,-0.007445310011558836,-0.00629616528252569,-0.004612290015216955,-0.002598467743632836,-0.0005964578095930358,0.0012896020016459444,0.0028688722372155525,0.00406870623056689,0.0048982121107946745,0.005521510350312533,0.005993418790694793,0.0063169238926379535,0.006540991579563157,0.006658636718157739,0.006691858194990699,0.006674917558913876,0.006645390269203676,0.006557666913997027,0.0062801044513844835,0.005873673599376937,0.005347679601726138,0.004751386400762333,0.004154226086352269,0.003615736723884339,0.0030922184671491643,0.0025683334896107165,0.0021019242551725214,0.0017451012269087763,0.0014039017280043367,0.0010181857367154805,0.0006848668427145737,0.00040225874269007964,7.082331078535068e-05,-0.0003086366144639091,-0.0007222894450837098,-0.001184017608158132,-0.0017010033127225369,-0.002238826121899429,-0.0027692414982732425,-0.0033313086316949765,-0.003920396699849745,-0.00446817033316502,-0.0050011552892639,-0.005590432080320973,-0.00615331225522408,-0.006683837271804658,-0.007167562798738042,-0.007590554774238462
-0.009043109086497723,-0.008893670484489113,-0.008205115735421533,-0.006956884866903886,-0.005074011122553071,-0.002764893094288734,-0.0003232827448705466,0.0018140669169775148,0.0034948474019763295,0.004733118110798967,0.005554788410967372,0.0060811269839689255,0.0064439870417989506,0.006699134000643462,0.0069264960377366565,0.0071079510939803334,0.007167614254028679,0.007183134815766012,0.007109481167948319,0.006800508522474798,0.006359563564384161,0.005815885063331288,0.005150985984563355,0.004518063376776111,0.0039939196630882105,0.003542714680520585,0.003054616464168763,0.0025350910924163673,0.0021663677193468063,0.0018775398912206352,0.0015157125916597112,0.0011710920358911974,0.0008584010073293872,0.0004262686599354604,-0.00011673485692147583,-0.0007695736076153767,-0.0013825918526372168,-0.0019516133947099076,-0.0026209265270394863,-0.003342490244964234,-0.004077379062341801,-0.004771703811949039,-0.005371108389767622,-0.005936363821382001,-0.006541093565142505,-0.007067913238893899,-0.007525973426740091,-0.007970978038758066,-0.008408031196752035,-0.008839057173123168
